 #
 # Subroutine ELSEPA. Elastic scattering of electrons and positrons
 #                    by neutral atoms and positive ions
 #
 # Projectile: electron
 # Kinetic energy = 9.00000E+01 eV = 3.30744E+00 a.u.
 #
 #  ***  WARNING: Energy is too low.
 #                The reliability of the results is questionable.
 #
 # Element:  H,  Z =   1,  atomic weight = 1.00790E+00 g/mol
 #
 # Nuclear model: Fermi distribution
 #                Average radius = 1.07281E-13 cm
 #                Skin thickness = 5.46000E-14 cm
 #
 # Number of electrons =  1
 #
 # Electron density: Read from file ./database/z_001.den                                                                                                    
 #                   Number of data points =  751
 #                   Volume integral = 1.00000E+00
 #
 # Furness-McCarthy exchange potential
 #
 # No absorption potential
 #
 # No correlation-polarization potential
 #
 # Integrated cross sections:
 # Total elastic cross section = 3.70505E-17 cm**2 = 1.32310E+00 a0**2
 # 1st transport cross section = 1.06004E-17 cm**2 = 3.78547E-01 a0**2
 # 2nd transport cross section = 1.95799E-17 cm**2 = 6.99211E-01 a0**2
 #
 #
 # Differential cross section:                       MU=(1-COS(THETA))/2
 #
 #  THETA        MU          DCS          DCS        Sherman      error
 #  (deg)                 (cm**2/sr)   (a0**2/sr)    function
 #----------------------------------------------------------------------
  0.000E+00  0.00000E+00  3.69622E-17  1.31994E+00  0.00000E+00  1.0E-07
  1.000E-04  7.61557E-13  3.69622E-17  1.31994E+00 -1.48466E-11  1.0E-07
  1.250E-04  1.18994E-12  3.69622E-17  1.31994E+00 -1.85582E-11  1.0E-07
  1.500E-04  1.71346E-12  3.69622E-17  1.31994E+00 -2.22698E-11  1.0E-07
  1.750E-04  2.33225E-12  3.69622E-17  1.31994E+00 -2.59815E-11  1.0E-07
  2.000E-04  3.04617E-12  3.69622E-17  1.31994E+00 -2.96931E-11  1.0E-07
  2.250E-04  3.85530E-12  3.69622E-17  1.31994E+00 -3.34047E-11  1.0E-07
  2.500E-04  4.75964E-12  3.69622E-17  1.31994E+00 -3.71164E-11  1.0E-07
  2.750E-04  5.75917E-12  3.69622E-17  1.31994E+00 -4.08280E-11  1.0E-07
  3.000E-04  6.85391E-12  3.69622E-17  1.31994E+00 -4.45397E-11  1.0E-07
  3.250E-04  8.04379E-12  3.69622E-17  1.31994E+00 -4.82513E-11  1.0E-07
  3.500E-04  9.32893E-12  3.69622E-17  1.31994E+00 -5.19629E-11  1.0E-07
  3.750E-04  1.07092E-11  3.69622E-17  1.31994E+00 -5.56746E-11  1.0E-07
  4.000E-04  1.21847E-11  3.69622E-17  1.31994E+00 -5.93862E-11  1.0E-07
  4.250E-04  1.37554E-11  3.69622E-17  1.31994E+00 -6.30979E-11  1.0E-07
  4.500E-04  1.54213E-11  3.69622E-17  1.31994E+00 -6.68095E-11  1.0E-07
  4.750E-04  1.71823E-11  3.69622E-17  1.31994E+00 -7.05211E-11  1.0E-07
  5.000E-04  1.90386E-11  3.69622E-17  1.31994E+00 -7.42328E-11  1.0E-07
  5.250E-04  2.09900E-11  3.69622E-17  1.31994E+00 -7.79444E-11  1.0E-07
  5.500E-04  2.30367E-11  3.69622E-17  1.31994E+00 -8.16561E-11  1.0E-07
  5.750E-04  2.51785E-11  3.69622E-17  1.31994E+00 -8.53677E-11  1.0E-07
  6.000E-04  2.74156E-11  3.69622E-17  1.31994E+00 -8.90793E-11  1.0E-07
  6.250E-04  2.97478E-11  3.69622E-17  1.31994E+00 -9.27910E-11  1.0E-07
  6.500E-04  3.21752E-11  3.69622E-17  1.31994E+00 -9.65026E-11  1.0E-07
  6.750E-04  3.46979E-11  3.69622E-17  1.31994E+00 -1.00214E-10  1.0E-07
  7.000E-04  3.73157E-11  3.69622E-17  1.31994E+00 -1.03926E-10  1.0E-07
  7.250E-04  4.00286E-11  3.69622E-17  1.31994E+00 -1.07638E-10  1.0E-07
  7.500E-04  4.28368E-11  3.69622E-17  1.31994E+00 -1.11349E-10  1.0E-07
  7.750E-04  4.57402E-11  3.69622E-17  1.31994E+00 -1.15061E-10  1.0E-07
  8.000E-04  4.87388E-11  3.69622E-17  1.31994E+00 -1.18772E-10  1.0E-07
  8.250E-04  5.18325E-11  3.69622E-17  1.31994E+00 -1.22484E-10  1.0E-07
  8.500E-04  5.50215E-11  3.69622E-17  1.31994E+00 -1.26196E-10  1.0E-07
  8.750E-04  5.83057E-11  3.69622E-17  1.31994E+00 -1.29907E-10  1.0E-07
  9.000E-04  6.16850E-11  3.69622E-17  1.31994E+00 -1.33619E-10  1.0E-07
  9.250E-04  6.51595E-11  3.69622E-17  1.31994E+00 -1.37331E-10  1.0E-07
  9.500E-04  6.87293E-11  3.69622E-17  1.31994E+00 -1.41042E-10  1.0E-07
  9.750E-04  7.23943E-11  3.69622E-17  1.31994E+00 -1.44754E-10  1.0E-07
  1.000E-03  7.61544E-11  3.69622E-17  1.31994E+00 -1.48466E-10  1.0E-07
  1.250E-03  1.18991E-10  3.69622E-17  1.31994E+00 -1.85582E-10  1.0E-07
  1.500E-03  1.71347E-10  3.69622E-17  1.31994E+00 -2.22698E-10  1.0E-07
  1.750E-03  2.33223E-10  3.69622E-17  1.31994E+00 -2.59815E-10  1.0E-07
  2.000E-03  3.04617E-10  3.69622E-17  1.31994E+00 -2.96931E-10  1.0E-07
  2.250E-03  3.85531E-10  3.69622E-17  1.31994E+00 -3.34048E-10  1.0E-07
  2.500E-03  4.75965E-10  3.69622E-17  1.31994E+00 -3.71164E-10  1.0E-07
  2.750E-03  5.75917E-10  3.69622E-17  1.31994E+00 -4.08280E-10  1.0E-07
  3.000E-03  6.85389E-10  3.69622E-17  1.31994E+00 -4.45397E-10  1.0E-07
  3.250E-03  8.04380E-10  3.69622E-17  1.31994E+00 -4.82513E-10  1.0E-07
  3.500E-03  9.32891E-10  3.69622E-17  1.31994E+00 -5.19629E-10  1.0E-07
  3.750E-03  1.07092E-09  3.69622E-17  1.31994E+00 -5.56746E-10  1.0E-07
  4.000E-03  1.21847E-09  3.69622E-17  1.31994E+00 -5.93862E-10  1.0E-07
  4.250E-03  1.37554E-09  3.69622E-17  1.31994E+00 -6.30979E-10  1.0E-07
  4.500E-03  1.54213E-09  3.69622E-17  1.31994E+00 -6.68095E-10  1.0E-07
  4.750E-03  1.71823E-09  3.69622E-17  1.31994E+00 -7.05211E-10  1.0E-07
  5.000E-03  1.90386E-09  3.69622E-17  1.31994E+00 -7.42328E-10  1.0E-07
  5.250E-03  2.09900E-09  3.69622E-17  1.31994E+00 -7.79444E-10  1.0E-07
  5.500E-03  2.30367E-09  3.69622E-17  1.31994E+00 -8.16561E-10  1.0E-07
  5.750E-03  2.51785E-09  3.69622E-17  1.31994E+00 -8.53677E-10  1.0E-07
  6.000E-03  2.74156E-09  3.69622E-17  1.31994E+00 -8.90793E-10  1.0E-07
  6.250E-03  2.97478E-09  3.69622E-17  1.31994E+00 -9.27910E-10  1.0E-07
  6.500E-03  3.21752E-09  3.69622E-17  1.31994E+00 -9.65026E-10  1.0E-07
  6.750E-03  3.46978E-09  3.69622E-17  1.31994E+00 -1.00214E-09  1.0E-07
  7.000E-03  3.73156E-09  3.69622E-17  1.31994E+00 -1.03926E-09  1.0E-07
  7.250E-03  4.00286E-09  3.69622E-17  1.31994E+00 -1.07638E-09  1.0E-07
  7.500E-03  4.28368E-09  3.69622E-17  1.31994E+00 -1.11349E-09  1.0E-07
  7.750E-03  4.57402E-09  3.69622E-17  1.31994E+00 -1.15061E-09  1.0E-07
  8.000E-03  4.87388E-09  3.69622E-17  1.31994E+00 -1.18772E-09  1.0E-07
  8.250E-03  5.18326E-09  3.69622E-17  1.31994E+00 -1.22484E-09  1.0E-07
  8.500E-03  5.50215E-09  3.69622E-17  1.31994E+00 -1.26196E-09  1.0E-07
  8.750E-03  5.83057E-09  3.69622E-17  1.31994E+00 -1.29907E-09  1.0E-07
  9.000E-03  6.16850E-09  3.69622E-17  1.31994E+00 -1.33619E-09  1.0E-07
  9.250E-03  6.51596E-09  3.69622E-17  1.31994E+00 -1.37331E-09  1.0E-07
  9.500E-03  6.87293E-09  3.69622E-17  1.31994E+00 -1.41042E-09  1.0E-07
  9.750E-03  7.23942E-09  3.69622E-17  1.31994E+00 -1.44754E-09  1.0E-07
  1.000E-02  7.61544E-09  3.69622E-17  1.31994E+00 -1.48466E-09  1.0E-07
  1.250E-02  1.18991E-08  3.69622E-17  1.31994E+00 -1.85582E-09  1.0E-07
  1.500E-02  1.71347E-08  3.69622E-17  1.31994E+00 -2.22698E-09  1.0E-07
  1.750E-02  2.33223E-08  3.69622E-17  1.31994E+00 -2.59815E-09  1.0E-07
  2.000E-02  3.04617E-08  3.69622E-17  1.31994E+00 -2.96931E-09  1.0E-07
  2.250E-02  3.85531E-08  3.69622E-17  1.31994E+00 -3.34048E-09  1.0E-07
  2.500E-02  4.75965E-08  3.69622E-17  1.31994E+00 -3.71164E-09  1.0E-07
  2.750E-02  5.75917E-08  3.69622E-17  1.31994E+00 -4.08281E-09  1.0E-07
  3.000E-02  6.85389E-08  3.69621E-17  1.31994E+00 -4.45397E-09  1.0E-07
  3.250E-02  8.04380E-08  3.69621E-17  1.31994E+00 -4.82513E-09  1.0E-07
  3.500E-02  9.32891E-08  3.69621E-17  1.31994E+00 -5.19630E-09  1.0E-07
  3.750E-02  1.07092E-07  3.69621E-17  1.31994E+00 -5.56746E-09  1.0E-07
  4.000E-02  1.21847E-07  3.69621E-17  1.31994E+00 -5.93863E-09  1.0E-07
  4.250E-02  1.37554E-07  3.69621E-17  1.31994E+00 -6.30980E-09  1.0E-07
  4.500E-02  1.54213E-07  3.69621E-17  1.31994E+00 -6.68096E-09  1.0E-07
  4.750E-02  1.71823E-07  3.69621E-17  1.31994E+00 -7.05213E-09  1.0E-07
  5.000E-02  1.90386E-07  3.69621E-17  1.31994E+00 -7.42329E-09  1.0E-07
  5.250E-02  2.09900E-07  3.69620E-17  1.31994E+00 -7.79446E-09  1.0E-07
  5.500E-02  2.30367E-07  3.69620E-17  1.31994E+00 -8.16563E-09  1.0E-07
  5.750E-02  2.51785E-07  3.69620E-17  1.31994E+00 -8.53679E-09  1.0E-07
  6.000E-02  2.74156E-07  3.69620E-17  1.31994E+00 -8.90796E-09  1.0E-07
  6.250E-02  2.97478E-07  3.69620E-17  1.31994E+00 -9.27913E-09  1.0E-07
  6.500E-02  3.21752E-07  3.69620E-17  1.31994E+00 -9.65030E-09  1.0E-07
  6.750E-02  3.46978E-07  3.69619E-17  1.31993E+00 -1.00215E-08  1.0E-07
  7.000E-02  3.73156E-07  3.69619E-17  1.31993E+00 -1.03926E-08  1.0E-07
  7.250E-02  4.00286E-07  3.69619E-17  1.31993E+00 -1.07638E-08  1.0E-07
  7.500E-02  4.28368E-07  3.69619E-17  1.31993E+00 -1.11350E-08  1.0E-07
  7.750E-02  4.57402E-07  3.69618E-17  1.31993E+00 -1.15061E-08  1.0E-07
  8.000E-02  4.87388E-07  3.69618E-17  1.31993E+00 -1.18773E-08  1.0E-07
  8.250E-02  5.18325E-07  3.69618E-17  1.31993E+00 -1.22485E-08  1.0E-07
  8.500E-02  5.50215E-07  3.69618E-17  1.31993E+00 -1.26196E-08  1.0E-07
  8.750E-02  5.83057E-07  3.69618E-17  1.31993E+00 -1.29908E-08  1.0E-07
  9.000E-02  6.16850E-07  3.69617E-17  1.31993E+00 -1.33620E-08  1.0E-07
  9.250E-02  6.51596E-07  3.69617E-17  1.31993E+00 -1.37332E-08  1.0E-07
  9.500E-02  6.87293E-07  3.69617E-17  1.31993E+00 -1.41043E-08  1.0E-07
  9.750E-02  7.23942E-07  3.69616E-17  1.31992E+00 -1.44755E-08  1.0E-07
  1.000E-01  7.61543E-07  3.69616E-17  1.31992E+00 -1.48467E-08  1.0E-07
  1.250E-01  1.18991E-06  3.69613E-17  1.31991E+00 -1.85584E-08  1.0E-07
  1.500E-01  1.71347E-06  3.69609E-17  1.31990E+00 -2.22703E-08  1.0E-07
  1.750E-01  2.33223E-06  3.69604E-17  1.31988E+00 -2.59821E-08  1.0E-07
  2.000E-01  3.04617E-06  3.69599E-17  1.31986E+00 -2.96941E-08  1.0E-07
  2.250E-01  3.85531E-06  3.69593E-17  1.31984E+00 -3.34062E-08  1.0E-07
  2.500E-01  4.75964E-06  3.69586E-17  1.31981E+00 -3.71183E-08  1.0E-07
  2.750E-01  5.75916E-06  3.69578E-17  1.31979E+00 -4.08306E-08  1.0E-07
  3.000E-01  6.85388E-06  3.69570E-17  1.31976E+00 -4.45430E-08  1.0E-07
  3.250E-01  8.04378E-06  3.69561E-17  1.31972E+00 -4.82556E-08  1.0E-07
  3.500E-01  9.32888E-06  3.69551E-17  1.31969E+00 -5.19683E-08  1.0E-07
  3.750E-01  1.07092E-05  3.69540E-17  1.31965E+00 -5.56812E-08  1.0E-07
  4.000E-01  1.21846E-05  3.69529E-17  1.31961E+00 -5.93942E-08  1.0E-07
  4.250E-01  1.37553E-05  3.69517E-17  1.31957E+00 -6.31075E-08  1.0E-07
  4.500E-01  1.54212E-05  3.69504E-17  1.31952E+00 -6.68209E-08  1.0E-07
  4.750E-01  1.71822E-05  3.69491E-17  1.31948E+00 -7.05346E-08  1.0E-07
  5.000E-01  1.90385E-05  3.69477E-17  1.31943E+00 -7.42484E-08  1.0E-07
  5.250E-01  2.09899E-05  3.69462E-17  1.31937E+00 -7.79625E-08  1.0E-07
  5.500E-01  2.30365E-05  3.69446E-17  1.31932E+00 -8.16769E-08  1.0E-07
  5.750E-01  2.51783E-05  3.69430E-17  1.31926E+00 -8.53915E-08  1.0E-07
  6.000E-01  2.74153E-05  3.69413E-17  1.31920E+00 -8.91064E-08  1.0E-07
  6.250E-01  2.97475E-05  3.69395E-17  1.31913E+00 -9.28215E-08  1.0E-07
  6.500E-01  3.21749E-05  3.69376E-17  1.31907E+00 -9.65370E-08  1.0E-07
  6.750E-01  3.46974E-05  3.69357E-17  1.31900E+00 -1.00253E-07  1.0E-07
  7.000E-01  3.73152E-05  3.69337E-17  1.31893E+00 -1.03969E-07  1.0E-07
  7.250E-01  4.00281E-05  3.69317E-17  1.31885E+00 -1.07685E-07  1.0E-07
  7.500E-01  4.28362E-05  3.69295E-17  1.31878E+00 -1.11402E-07  1.0E-07
  7.750E-01  4.57395E-05  3.69273E-17  1.31870E+00 -1.15119E-07  1.0E-07
  8.000E-01  4.87380E-05  3.69250E-17  1.31862E+00 -1.18837E-07  1.0E-07
  8.250E-01  5.18317E-05  3.69227E-17  1.31853E+00 -1.22554E-07  1.0E-07
  8.500E-01  5.50205E-05  3.69202E-17  1.31845E+00 -1.26273E-07  1.0E-07
  8.750E-01  5.83045E-05  3.69177E-17  1.31836E+00 -1.29991E-07  1.0E-07
  9.000E-01  6.16838E-05  3.69151E-17  1.31826E+00 -1.33710E-07  1.0E-07
  9.250E-01  6.51582E-05  3.69125E-17  1.31817E+00 -1.37430E-07  1.0E-07
  9.500E-01  6.87277E-05  3.69098E-17  1.31807E+00 -1.41150E-07  1.0E-07
  9.750E-01  7.23925E-05  3.69070E-17  1.31797E+00 -1.44870E-07  1.0E-07
  1.000E+00  7.61524E-05  3.69041E-17  1.31787E+00 -1.48591E-07  1.0E-07
  1.100E+00  9.21439E-05  3.68919E-17  1.31744E+00 -1.63479E-07  1.0E-07
  1.200E+00  1.09658E-04  3.68786E-17  1.31696E+00 -1.78375E-07  1.0E-07
  1.300E+00  1.28695E-04  3.68641E-17  1.31644E+00 -1.93280E-07  1.0E-07
  1.400E+00  1.49255E-04  3.68485E-17  1.31588E+00 -2.08195E-07  1.0E-07
  1.500E+00  1.71338E-04  3.68317E-17  1.31528E+00 -2.23121E-07  1.0E-07
  1.600E+00  1.94942E-04  3.68138E-17  1.31464E+00 -2.38058E-07  1.0E-07
  1.700E+00  2.20070E-04  3.67947E-17  1.31396E+00 -2.53007E-07  1.0E-07
  1.800E+00  2.46720E-04  3.67745E-17  1.31324E+00 -2.67968E-07  1.0E-07
  1.900E+00  2.74892E-04  3.67532E-17  1.31248E+00 -2.82944E-07  1.0E-07
  2.000E+00  3.04586E-04  3.67307E-17  1.31168E+00 -2.97933E-07  1.0E-07
  2.100E+00  3.35803E-04  3.67071E-17  1.31083E+00 -3.12938E-07  1.0E-07
  2.200E+00  3.68542E-04  3.66823E-17  1.30995E+00 -3.27958E-07  1.0E-07
  2.300E+00  4.02802E-04  3.66565E-17  1.30903E+00 -3.42995E-07  1.0E-07
  2.400E+00  4.38585E-04  3.66295E-17  1.30806E+00 -3.58049E-07  1.0E-07
  2.500E+00  4.75889E-04  3.66013E-17  1.30706E+00 -3.73121E-07  1.0E-07
  2.600E+00  5.14715E-04  3.65721E-17  1.30601E+00 -3.88212E-07  1.0E-07
  2.700E+00  5.55063E-04  3.65418E-17  1.30493E+00 -4.03323E-07  1.0E-07
  2.800E+00  5.96931E-04  3.65103E-17  1.30381E+00 -4.18454E-07  1.0E-07
  2.900E+00  6.40321E-04  3.64778E-17  1.30265E+00 -4.33606E-07  1.0E-07
  3.000E+00  6.85233E-04  3.64441E-17  1.30144E+00 -4.48780E-07  1.0E-07
  3.100E+00  7.31665E-04  3.64094E-17  1.30020E+00 -4.63976E-07  1.0E-07
  3.200E+00  7.79618E-04  3.63736E-17  1.29892E+00 -4.79196E-07  1.0E-07
  3.300E+00  8.29092E-04  3.63367E-17  1.29761E+00 -4.94440E-07  1.0E-07
  3.400E+00  8.80086E-04  3.62987E-17  1.29625E+00 -5.09709E-07  1.0E-07
  3.500E+00  9.32601E-04  3.62596E-17  1.29485E+00 -5.25004E-07  1.0E-07
  3.600E+00  9.86636E-04  3.62194E-17  1.29342E+00 -5.40325E-07  1.0E-07
  3.700E+00  1.04219E-03  3.61782E-17  1.29195E+00 -5.55673E-07  1.0E-07
  3.800E+00  1.09927E-03  3.61360E-17  1.29044E+00 -5.71049E-07  1.0E-07
  3.900E+00  1.15786E-03  3.60926E-17  1.28889E+00 -5.86453E-07  1.0E-07
  4.000E+00  1.21797E-03  3.60483E-17  1.28731E+00 -6.01887E-07  1.0E-07
  4.100E+00  1.27961E-03  3.60028E-17  1.28569E+00 -6.17352E-07  1.0E-07
  4.200E+00  1.34276E-03  3.59564E-17  1.28403E+00 -6.32847E-07  1.0E-07
  4.300E+00  1.40743E-03  3.59089E-17  1.28233E+00 -6.48374E-07  1.0E-07
  4.400E+00  1.47362E-03  3.58604E-17  1.28060E+00 -6.63933E-07  1.0E-07
  4.500E+00  1.54133E-03  3.58109E-17  1.27883E+00 -6.79526E-07  1.0E-07
  4.600E+00  1.61056E-03  3.57603E-17  1.27702E+00 -6.95153E-07  1.0E-07
  4.700E+00  1.68131E-03  3.57088E-17  1.27518E+00 -7.10815E-07  1.0E-07
  4.800E+00  1.75357E-03  3.56562E-17  1.27331E+00 -7.26512E-07  1.0E-07
  4.900E+00  1.82735E-03  3.56027E-17  1.27139E+00 -7.42245E-07  1.0E-07
  5.000E+00  1.90265E-03  3.55481E-17  1.26945E+00 -7.58016E-07  1.0E-07
  5.100E+00  1.97947E-03  3.54926E-17  1.26746E+00 -7.73824E-07  1.0E-07
  5.200E+00  2.05780E-03  3.54361E-17  1.26545E+00 -7.89671E-07  1.0E-07
  5.300E+00  2.13765E-03  3.53787E-17  1.26340E+00 -8.05558E-07  1.0E-07
  5.400E+00  2.21902E-03  3.53203E-17  1.26131E+00 -8.21484E-07  1.0E-07
  5.500E+00  2.30190E-03  3.52609E-17  1.25919E+00 -8.37452E-07  1.0E-07
  5.600E+00  2.38630E-03  3.52006E-17  1.25704E+00 -8.53461E-07  1.0E-07
  5.700E+00  2.47222E-03  3.51393E-17  1.25485E+00 -8.69513E-07  1.0E-07
  5.800E+00  2.55965E-03  3.50772E-17  1.25263E+00 -8.85608E-07  1.0E-07
  5.900E+00  2.64859E-03  3.50141E-17  1.25038E+00 -9.01747E-07  1.0E-07
  6.000E+00  2.73905E-03  3.49501E-17  1.24809E+00 -9.17931E-07  1.0E-07
  6.100E+00  2.83103E-03  3.48851E-17  1.24577E+00 -9.34161E-07  1.0E-07
  6.200E+00  2.92452E-03  3.48193E-17  1.24342E+00 -9.50436E-07  1.0E-07
  6.300E+00  3.01952E-03  3.47526E-17  1.24104E+00 -9.66759E-07  1.0E-07
  6.400E+00  3.11604E-03  3.46850E-17  1.23862E+00 -9.83130E-07  1.0E-07
  6.500E+00  3.21407E-03  3.46165E-17  1.23618E+00 -9.99550E-07  1.0E-07
  6.600E+00  3.31362E-03  3.45472E-17  1.23370E+00 -1.01602E-06  1.0E-07
  6.700E+00  3.41468E-03  3.44770E-17  1.23120E+00 -1.03254E-06  1.0E-07
  6.800E+00  3.51725E-03  3.44060E-17  1.22866E+00 -1.04911E-06  1.0E-07
  6.900E+00  3.62133E-03  3.43341E-17  1.22609E+00 -1.06573E-06  1.0E-07
  7.000E+00  3.72692E-03  3.42614E-17  1.22350E+00 -1.08241E-06  1.0E-07
  7.100E+00  3.83403E-03  3.41879E-17  1.22087E+00 -1.09913E-06  1.0E-07
  7.200E+00  3.94265E-03  3.41135E-17  1.21822E+00 -1.11592E-06  1.0E-07
  7.300E+00  4.05278E-03  3.40383E-17  1.21553E+00 -1.13275E-06  1.0E-07
  7.400E+00  4.16442E-03  3.39624E-17  1.21282E+00 -1.14965E-06  1.0E-07
  7.500E+00  4.27757E-03  3.38856E-17  1.21008E+00 -1.16660E-06  1.0E-07
  7.600E+00  4.39223E-03  3.38081E-17  1.20731E+00 -1.18360E-06  1.0E-07
  7.700E+00  4.50840E-03  3.37298E-17  1.20451E+00 -1.20067E-06  1.0E-07
  7.800E+00  4.62608E-03  3.36507E-17  1.20169E+00 -1.21779E-06  1.0E-07
  7.900E+00  4.74527E-03  3.35709E-17  1.19884E+00 -1.23498E-06  1.0E-07
  8.000E+00  4.86597E-03  3.34904E-17  1.19596E+00 -1.25222E-06  1.0E-07
  8.100E+00  4.98817E-03  3.34091E-17  1.19306E+00 -1.26953E-06  1.0E-07
  8.200E+00  5.11188E-03  3.33270E-17  1.19013E+00 -1.28690E-06  1.0E-07
  8.300E+00  5.23711E-03  3.32443E-17  1.18718E+00 -1.30433E-06  1.0E-07
  8.400E+00  5.36383E-03  3.31609E-17  1.18420E+00 -1.32182E-06  1.0E-07
  8.500E+00  5.49207E-03  3.30767E-17  1.18119E+00 -1.33938E-06  1.0E-07
  8.600E+00  5.62181E-03  3.29919E-17  1.17816E+00 -1.35700E-06  1.0E-07
  8.700E+00  5.75306E-03  3.29064E-17  1.17511E+00 -1.37469E-06  1.0E-07
  8.800E+00  5.88581E-03  3.28202E-17  1.17203E+00 -1.39245E-06  1.0E-07
  8.900E+00  6.02007E-03  3.27333E-17  1.16893E+00 -1.41027E-06  1.0E-07
  9.000E+00  6.15583E-03  3.26459E-17  1.16580E+00 -1.42817E-06  1.0E-07
  9.100E+00  6.29310E-03  3.25577E-17  1.16266E+00 -1.44613E-06  1.0E-07
  9.200E+00  6.43187E-03  3.24690E-17  1.15949E+00 -1.46416E-06  1.0E-07
  9.300E+00  6.57214E-03  3.23796E-17  1.15630E+00 -1.48227E-06  1.0E-07
  9.400E+00  6.71392E-03  3.22896E-17  1.15308E+00 -1.50044E-06  1.0E-07
  9.500E+00  6.85720E-03  3.21990E-17  1.14985E+00 -1.51869E-06  1.0E-07
  9.600E+00  7.00198E-03  3.21078E-17  1.14659E+00 -1.53701E-06  1.0E-07
  9.700E+00  7.14827E-03  3.20160E-17  1.14331E+00 -1.55540E-06  1.0E-07
  9.800E+00  7.29605E-03  3.19236E-17  1.14001E+00 -1.57387E-06  1.0E-07
  9.900E+00  7.44534E-03  3.18307E-17  1.13669E+00 -1.59242E-06  1.0E-07
  1.000E+01  7.59612E-03  3.17372E-17  1.13336E+00 -1.61104E-06  1.0E-07
  1.025E+01  7.97965E-03  3.15012E-17  1.12493E+00 -1.65794E-06  1.0E-07
  1.050E+01  8.37255E-03  3.12618E-17  1.11638E+00 -1.70533E-06  1.0E-07
  1.075E+01  8.77480E-03  3.10194E-17  1.10772E+00 -1.75323E-06  1.0E-07
  1.100E+01  9.18641E-03  3.07741E-17  1.09896E+00 -1.80166E-06  1.0E-07
  1.125E+01  9.60736E-03  3.05259E-17  1.09010E+00 -1.85061E-06  1.0E-07
  1.150E+01  1.00376E-02  3.02751E-17  1.08114E+00 -1.90012E-06  1.0E-07
  1.175E+01  1.04773E-02  3.00217E-17  1.07210E+00 -1.95019E-06  1.0E-07
  1.200E+01  1.09262E-02  2.97660E-17  1.06296E+00 -2.00083E-06  1.0E-07
  1.225E+01  1.13844E-02  2.95082E-17  1.05376E+00 -2.05205E-06  1.0E-07
  1.250E+01  1.18520E-02  2.92482E-17  1.04447E+00 -2.10388E-06  1.0E-07
  1.275E+01  1.23288E-02  2.89863E-17  1.03512E+00 -2.15632E-06  1.0E-07
  1.300E+01  1.28150E-02  2.87227E-17  1.02571E+00 -2.20938E-06  1.0E-07
  1.325E+01  1.33104E-02  2.84575E-17  1.01623E+00 -2.26309E-06  1.0E-07
  1.350E+01  1.38150E-02  2.81907E-17  1.00671E+00 -2.31744E-06  1.0E-07
  1.375E+01  1.43290E-02  2.79226E-17  9.97135E-01 -2.37246E-06  1.0E-07
  1.400E+01  1.48521E-02  2.76533E-17  9.87519E-01 -2.42816E-06  1.0E-07
  1.425E+01  1.53845E-02  2.73830E-17  9.77864E-01 -2.48456E-06  1.0E-07
