 #
 # Subroutine ELSEPA. Elastic scattering of electrons and positrons
 #                    by neutral atoms and positive ions
 #
 # Projectile: electron
 # Kinetic energy = 6.00000E+07 eV = 2.20496E+06 a.u.
 #
 # Element:  H,  Z =   1,  atomic weight = 1.00790E+00 g/mol
 #
 # Nuclear model: Fermi distribution
 #                Average radius = 1.07281E-13 cm
 #                Skin thickness = 5.46000E-14 cm
 #
 # Number of electrons =  1
 #
 # Electron density: Read from file ./database/z_001.den                                                                                                    
 #                   Number of data points =  751
 #                   Volume integral = 1.00000E+00
 #
 # WARNING: High-energy factorization with free-atom DF screening.
 #          Absorption, polarization and exchange corrections are
 #          switched off.
 #          Phase shifts are calculated for the bare nucleus.
 #          Scattering amplitudes are not evaluated.
 #
 # Integrated cross sections:
 # Total elastic cross section = 1.08529E-20 cm**2 = 3.87563E-04 a0**2
 # 1st transport cross section = 6.48069E-28 cm**2 = 2.31430E-11 a0**2
 # 2nd transport cross section = 1.89971E-27 cm**2 = 6.78397E-11 a0**2
 #
 #
 # Differential cross section:                       MU=(1-COS(THETA))/2
 #
 #  THETA        MU          DCS          DCS        Sherman      error
 #  (deg)                 (cm**2/sr)   (a0**2/sr)    function
 #----------------------------------------------------------------------
  0.000E+00  0.00000E+00  3.92644E-13  1.40216E+04  0.00000E+00  1.0E-05
  1.000E-04  7.61557E-13  3.92408E-13  1.40131E+04  0.00000E+00  1.0E-05
  1.250E-04  1.18994E-12  3.92275E-13  1.40084E+04  0.00000E+00  1.0E-05
  1.500E-04  1.71346E-12  3.92113E-13  1.40026E+04  0.00000E+00  1.0E-05
  1.750E-04  2.33225E-12  3.91922E-13  1.39958E+04  0.00000E+00  1.0E-05
  2.000E-04  3.04617E-12  3.91701E-13  1.39879E+04  0.00000E+00  1.0E-05
  2.250E-04  3.85530E-12  3.91451E-13  1.39790E+04  0.00000E+00  1.0E-05
  2.500E-04  4.75964E-12  3.91171E-13  1.39690E+04  0.00000E+00  1.0E-05
  2.750E-04  5.75917E-12  3.90863E-13  1.39580E+04  0.00000E+00  1.0E-05
  3.000E-04  6.85391E-12  3.90526E-13  1.39459E+04  0.00000E+00  1.0E-05
  3.250E-04  8.04379E-12  3.90159E-13  1.39328E+04  0.00000E+00  1.0E-05
  3.500E-04  9.32893E-12  3.89765E-13  1.39188E+04  0.00000E+00  1.0E-05
  3.750E-04  1.07092E-11  3.89341E-13  1.39036E+04  0.00000E+00  1.0E-05
  4.000E-04  1.21847E-11  3.88889E-13  1.38875E+04  0.00000E+00  1.0E-05
  4.250E-04  1.37554E-11  3.88409E-13  1.38703E+04  0.00000E+00  1.0E-05
  4.500E-04  1.54213E-11  3.87900E-13  1.38522E+04  0.00000E+00  1.0E-05
  4.750E-04  1.71823E-11  3.87364E-13  1.38330E+04  0.00000E+00  1.0E-05
  5.000E-04  1.90386E-11  3.86799E-13  1.38128E+04  0.00000E+00  1.0E-05
  5.250E-04  2.09900E-11  3.86207E-13  1.37917E+04  0.00000E+00  1.0E-05
  5.500E-04  2.30367E-11  3.85586E-13  1.37695E+04  0.00000E+00  1.0E-05
  5.750E-04  2.51785E-11  3.84940E-13  1.37464E+04  0.00000E+00  1.0E-05
  6.000E-04  2.74156E-11  3.84265E-13  1.37224E+04  0.00000E+00  1.0E-05
  6.250E-04  2.97478E-11  3.83564E-13  1.36973E+04  0.00000E+00  1.0E-05
  6.500E-04  3.21752E-11  3.82837E-13  1.36714E+04  0.00000E+00  1.0E-05
  6.750E-04  3.46979E-11  3.82081E-13  1.36444E+04  0.00000E+00  1.0E-05
  7.000E-04  3.73157E-11  3.81302E-13  1.36165E+04  0.00000E+00  1.0E-05
  7.250E-04  4.00286E-11  3.80494E-13  1.35877E+04  0.00000E+00  1.0E-05
  7.500E-04  4.28368E-11  3.79661E-13  1.35580E+04  0.00000E+00  1.0E-05
  7.750E-04  4.57402E-11  3.78803E-13  1.35273E+04  0.00000E+00  1.0E-05
  8.000E-04  4.87388E-11  3.77919E-13  1.34957E+04  0.00000E+00  1.0E-05
  8.250E-04  5.18325E-11  3.77013E-13  1.34634E+04  0.00000E+00  1.0E-05
  8.500E-04  5.50215E-11  3.76077E-13  1.34300E+04  0.00000E+00  1.0E-05
  8.750E-04  5.83057E-11  3.75121E-13  1.33958E+04  0.00000E+00  1.0E-05
  9.000E-04  6.16850E-11  3.74138E-13  1.33607E+04  0.00000E+00  1.0E-05
  9.250E-04  6.51595E-11  3.73132E-13  1.33248E+04  0.00000E+00  1.0E-05
  9.500E-04  6.87293E-11  3.72103E-13  1.32880E+04  0.00000E+00  1.0E-05
  9.750E-04  7.23943E-11  3.71049E-13  1.32504E+04  0.00000E+00  1.0E-05
  1.000E-03  7.61544E-11  3.69976E-13  1.32121E+04  0.00000E+00  1.0E-05
  1.250E-03  1.18991E-10  3.58015E-13  1.27849E+04  0.00000E+00  1.0E-05
  1.500E-03  1.71347E-10  3.44116E-13  1.22886E+04  0.00000E+00  1.0E-05
  1.750E-03  2.33223E-10  3.28644E-13  1.17361E+04  0.00000E+00  1.0E-05
  2.000E-03  3.04617E-10  3.11973E-13  1.11408E+04  0.00000E+00  1.0E-05
  2.250E-03  3.85531E-10  2.94461E-13  1.05154E+04  0.00000E+00  1.0E-05
  2.500E-03  4.75965E-10  2.75765E-13  9.84774E+03  0.00000E+00  1.0E-05
  2.750E-03  5.75917E-10  2.57553E-13  9.19739E+03  0.00000E+00  1.0E-05
  3.000E-03  6.85389E-10  2.39991E-13  8.57025E+03  0.00000E+00  1.0E-05
  3.250E-03  8.04380E-10  2.21851E-13  7.92243E+03  0.00000E+00  1.0E-05
  3.500E-03  9.32891E-10  2.05482E-13  7.33791E+03  0.00000E+00  1.0E-05
  3.750E-03  1.07092E-09  1.88577E-13  6.73422E+03  0.00000E+00  1.0E-05
  4.000E-03  1.21847E-09  1.73310E-13  6.18901E+03  0.00000E+00  1.0E-05
  4.250E-03  1.37554E-09  1.58680E-13  5.66656E+03  0.00000E+00  1.0E-05
  4.500E-03  1.54213E-09  1.44939E-13  5.17586E+03  0.00000E+00  1.0E-05
  4.750E-03  1.71823E-09  1.32534E-13  4.73286E+03  0.00000E+00  1.0E-05
  5.000E-03  1.90386E-09  1.20519E-13  4.30383E+03  0.00000E+00  1.0E-05
  5.250E-03  2.09900E-09  1.09971E-13  3.92713E+03  0.00000E+00  1.0E-05
  5.500E-03  2.30367E-09  9.98631E-14  3.56617E+03  0.00000E+00  1.0E-05
  5.750E-03  2.51785E-09  9.08592E-14  3.24464E+03  0.00000E+00  1.0E-05
  6.000E-03  2.74156E-09  8.26061E-14  2.94992E+03  0.00000E+00  1.0E-05
  6.250E-03  2.97478E-09  7.50393E-14  2.67970E+03  0.00000E+00  1.0E-05
  6.500E-03  3.21752E-09  6.83156E-14  2.43959E+03  0.00000E+00  1.0E-05
  6.750E-03  3.46978E-09  6.20283E-14  2.21507E+03  0.00000E+00  1.0E-05
  7.000E-03  3.73156E-09  5.64898E-14  2.01729E+03  0.00000E+00  1.0E-05
  7.250E-03  4.00286E-09  5.13689E-14  1.83442E+03  0.00000E+00  1.0E-05
  7.500E-03  4.28368E-09  4.67917E-14  1.67096E+03  0.00000E+00  1.0E-05
  7.750E-03  4.57402E-09  4.26534E-14  1.52318E+03  0.00000E+00  1.0E-05
  8.000E-03  4.87388E-09  3.88873E-14  1.38869E+03  0.00000E+00  1.0E-05
  8.250E-03  5.18326E-09  3.55309E-14  1.26883E+03  0.00000E+00  1.0E-05
  8.500E-03  5.50215E-09  3.24391E-14  1.15842E+03  0.00000E+00  1.0E-05
  8.750E-03  5.83057E-09  2.96855E-14  1.06009E+03  0.00000E+00  1.0E-05
  9.000E-03  6.16850E-09  2.71694E-14  9.70237E+02  0.00000E+00  1.0E-05
  9.250E-03  6.51596E-09  2.49026E-14  8.89288E+02  0.00000E+00  1.0E-05
  9.500E-03  6.87293E-09  2.28522E-14  8.16068E+02  0.00000E+00  1.0E-05
  9.750E-03  7.23942E-09  2.09845E-14  7.49369E+02  0.00000E+00  1.0E-05
  1.000E-02  7.61544E-09  1.93003E-14  6.89227E+02  0.00000E+00  1.0E-05
  1.250E-02  1.18991E-08  8.57686E-15  3.06285E+02  0.00000E+00  1.0E-05
  1.500E-02  1.71347E-08  4.32953E-15  1.54610E+02  0.00000E+00  1.0E-05
  1.750E-02  2.33223E-08  2.40346E-15  8.58292E+01  0.00000E+00  1.0E-05
  2.000E-02  3.04617E-08  1.43506E-15  5.12469E+01  0.00000E+00  1.0E-05
  2.250E-02  3.85531E-08  9.07377E-16  3.24030E+01  0.00000E+00  1.0E-05
  2.500E-02  4.75965E-08  6.00805E-16  2.14551E+01  0.00000E+00  1.0E-05
  2.750E-02  5.75917E-08  4.13158E-16  1.47541E+01  0.00000E+00  1.0E-05
  3.000E-02  6.85389E-08  2.93235E-16  1.04716E+01  0.00000E+00  1.0E-05
  3.250E-02  8.04380E-08  2.13759E-16  7.63347E+00  0.00000E+00  1.0E-05
  3.500E-02  9.32891E-08  1.59435E-16  5.69352E+00  0.00000E+00  1.0E-05
  3.750E-02  1.07092E-07  1.21299E-16  4.33168E+00  0.00000E+00  1.0E-05
  4.000E-02  1.21847E-07  9.39007E-17  3.35326E+00  0.00000E+00  1.0E-05
  4.250E-02  1.37554E-07  7.38109E-17  2.63584E+00  0.00000E+00  1.0E-05
  4.500E-02  1.54213E-07  5.88125E-17  2.10023E+00  0.00000E+00  1.0E-05
  4.750E-02  1.71823E-07  4.74341E-17  1.69390E+00  0.00000E+00  1.0E-05
  5.000E-02  1.90386E-07  3.86768E-17  1.38117E+00  0.00000E+00  1.0E-05
  5.250E-02  2.09900E-07  3.18489E-17  1.13735E+00  0.00000E+00  1.0E-05
  5.500E-02  2.30367E-07  2.64624E-17  9.44989E-01  0.00000E+00  1.0E-05
  5.750E-02  2.51785E-07  2.21673E-17  7.91607E-01  0.00000E+00  1.0E-05
  6.000E-02  2.74156E-07  1.87088E-17  6.68102E-01  0.00000E+00  1.0E-05
  6.250E-02  2.97478E-07  1.58988E-17  5.67757E-01  0.00000E+00  1.0E-05
  6.500E-02  3.21752E-07  1.35969E-17  4.85555E-01  0.00000E+00  1.0E-05
  6.750E-02  3.46978E-07  1.16967E-17  4.17698E-01  0.00000E+00  1.0E-05
  7.000E-02  3.73156E-07  1.01171E-17  3.61287E-01  0.00000E+00  1.0E-05
  7.250E-02  4.00286E-07  8.79517E-18  3.14081E-01  0.00000E+00  1.0E-05
  7.500E-02  4.28368E-07  7.68221E-18  2.74337E-01  0.00000E+00  1.0E-05
  7.750E-02  4.57402E-07  6.73979E-18  2.40682E-01  0.00000E+00  1.0E-05
  8.000E-02  4.87388E-07  5.93751E-18  2.12032E-01  0.00000E+00  1.0E-05
  8.250E-02  5.18325E-07  5.25109E-18  1.87520E-01  0.00000E+00  1.0E-05
  8.500E-02  5.50215E-07  4.66103E-18  1.66448E-01  0.00000E+00  1.0E-05
  8.750E-02  5.83057E-07  4.15154E-18  1.48254E-01  0.00000E+00  1.0E-05
  9.000E-02  6.16850E-07  3.70979E-18  1.32479E-01  0.00000E+00  1.0E-05
  9.250E-02  6.51596E-07  3.32525E-18  1.18747E-01  0.00000E+00  1.0E-05
  9.500E-02  6.87293E-07  2.98925E-18  1.06748E-01  0.00000E+00  1.0E-05
  9.750E-02  7.23942E-07  2.69463E-18  9.62270E-02  0.00000E+00  1.0E-05
  1.000E-01  7.61543E-07  2.43542E-18  8.69705E-02  0.00000E+00  1.0E-05
  1.250E-01  1.18991E-06  9.98449E-19  3.56553E-02  0.00000E+00  1.0E-05
  1.500E-01  1.71347E-06  4.81742E-19  1.72033E-02  0.00000E+00  1.0E-05
  1.750E-01  2.33223E-06  2.60110E-19  9.28871E-03  0.00000E+00  1.0E-05
  2.000E-01  3.04617E-06  1.52502E-19  5.44594E-03  0.00000E+00  1.0E-05
  2.250E-01  3.85531E-06  9.52191E-20  3.40034E-03  0.00000E+00  1.0E-05
  2.500E-01  4.75964E-06  6.24795E-20  2.23118E-03  0.00000E+00  1.0E-05
  2.750E-01  5.75916E-06  4.26775E-20  1.52404E-03  0.00000E+00  1.0E-05
  3.000E-01  6.85388E-06  3.01349E-20  1.07614E-03  0.00000E+00  1.0E-05
  3.250E-01  8.04378E-06  2.18797E-20  7.81339E-04  0.00000E+00  1.0E-05
  3.500E-01  9.32888E-06  1.62675E-20  5.80922E-04  0.00000E+00  1.0E-05
  3.750E-01  1.07092E-05  1.23447E-20  4.40838E-04  0.00000E+00  1.0E-05
  4.000E-01  1.21846E-05  9.53626E-21  3.40546E-04  0.00000E+00  1.0E-05
  4.250E-01  1.37553E-05  7.48295E-21  2.67221E-04  0.00000E+00  1.0E-05
  4.500E-01  1.54212E-05  5.95371E-21  2.12611E-04  0.00000E+00  1.0E-05
  4.750E-01  1.71822E-05  4.79591E-21  1.71265E-04  0.00000E+00  1.0E-05
  5.000E-01  1.90385E-05  3.90637E-21  1.39499E-04  0.00000E+00  1.0E-05
  5.250E-01  2.09899E-05  3.21383E-21  1.14768E-04  0.00000E+00  1.0E-05
  5.500E-01  2.30365E-05  2.66818E-21  9.52825E-05  0.00000E+00  1.0E-05
  5.750E-01  2.51783E-05  2.23357E-21  7.97624E-05  0.00000E+00  1.0E-05
  6.000E-01  2.74153E-05  1.88396E-21  6.72775E-05  0.00000E+00  1.0E-05
  6.250E-01  2.97475E-05  1.60016E-21  5.71426E-05  0.00000E+00  1.0E-05
  6.500E-01  3.21749E-05  1.36784E-21  4.88463E-05  0.00000E+00  1.0E-05
  6.750E-01  3.46974E-05  1.17619E-21  4.20025E-05  0.00000E+00  1.0E-05
  7.000E-01  3.73152E-05  1.01696E-21  3.63164E-05  0.00000E+00  1.0E-05
  7.250E-01  4.00281E-05  8.83791E-22  3.15607E-05  0.00000E+00  1.0E-05
  7.500E-01  4.28362E-05  7.71722E-22  2.75587E-05  0.00000E+00  1.0E-05
  7.750E-01  4.57395E-05  6.76867E-22  2.41713E-05  0.00000E+00  1.0E-05
  8.000E-01  4.87380E-05  5.96148E-22  2.12888E-05  0.00000E+00  1.0E-05
  8.250E-01  5.18317E-05  5.27111E-22  1.88235E-05  0.00000E+00  1.0E-05
  8.500E-01  5.50205E-05  4.67785E-22  1.67049E-05  0.00000E+00  1.0E-05
  8.750E-01  5.83045E-05  4.16576E-22  1.48762E-05  0.00000E+00  1.0E-05
  9.000E-01  6.16838E-05  3.72186E-22  1.32910E-05  0.00000E+00  1.0E-05
  9.250E-01  6.51582E-05  3.33555E-22  1.19115E-05  0.00000E+00  1.0E-05
  9.500E-01  6.87277E-05  2.99808E-22  1.07063E-05  0.00000E+00  1.0E-05
  9.750E-01  7.23925E-05  2.70224E-22  9.64986E-06  0.00000E+00  1.0E-05
  1.000E+00  7.61524E-05  2.44200E-22  8.72054E-06  0.00000E+00  1.0E-05
  1.100E+00  9.21439E-05  1.66798E-22  5.95645E-06  0.00000E+00  1.0E-05
  1.200E+00  1.09658E-04  1.17774E-22  4.20580E-06  0.00000E+00  1.0E-05
  1.300E+00  1.28695E-04  8.54928E-23  3.05300E-06  0.00000E+00  3.7E-04
  1.400E+00  1.49255E-04  6.35762E-23  2.27035E-06  0.00000E+00  1.0E-05
  1.500E+00  1.71338E-04  4.82456E-23  1.72288E-06  0.00000E+00  1.0E-05
  1.600E+00  1.94942E-04  3.72699E-23  1.33093E-06  0.00000E+00  1.0E-05
  1.700E+00  2.20070E-04  2.92455E-23  1.04438E-06  0.00000E+00  1.0E-05
  1.800E+00  2.46720E-04  2.32600E-23  8.30631E-07  0.00000E+00  8.2E-04
  1.900E+00  2.74892E-04  1.87361E-23  6.69078E-07  0.00000E+00  5.8E-05
  2.000E+00  3.04586E-04  1.52606E-23  5.44965E-07  0.00000E+00  5.8E-04
  2.100E+00  3.35803E-04  1.25548E-23  4.48342E-07  0.00000E+00  8.9E-04
  2.200E+00  3.68542E-04  1.04229E-23  3.72209E-07  0.00000E+00  9.1E-04
  2.300E+00  4.02802E-04  8.72504E-24  3.11577E-07  0.00000E+00  7.0E-04
  2.400E+00  4.38585E-04  7.35909E-24  2.62798E-07  0.00000E+00  3.6E-04
  2.500E+00  4.75889E-04  6.25036E-24  2.23204E-07  0.00000E+00  4.3E-05
  2.600E+00  5.14715E-04  5.34273E-24  1.90792E-07  0.00000E+00  3.4E-04
  2.700E+00  5.55063E-04  4.59402E-24  1.64055E-07  0.00000E+00  4.9E-04
  2.800E+00  5.96931E-04  3.97200E-24  1.41843E-07  0.00000E+00  5.0E-04
  2.900E+00  6.40321E-04  3.45173E-24  1.23264E-07  0.00000E+00  3.8E-04
  3.000E+00  6.85233E-04  3.01395E-24  1.07630E-07  0.00000E+00  1.8E-04
  3.100E+00  7.31665E-04  2.64340E-24  9.43975E-08  0.00000E+00  5.5E-05
  3.200E+00  7.79618E-04  2.32808E-24  8.31374E-08  0.00000E+00  2.2E-04
  3.300E+00  8.29092E-04  2.05841E-24  7.35071E-08  0.00000E+00  3.1E-04
  3.400E+00  8.80086E-04  1.82666E-24  6.52312E-08  0.00000E+00  3.0E-04
  3.500E+00  9.32601E-04  1.62663E-24  5.80881E-08  0.00000E+00  2.2E-04
  3.600E+00  9.86636E-04  1.45324E-24  5.18960E-08  0.00000E+00  9.7E-05
  3.700E+00  1.04219E-03  1.30234E-24  4.65076E-08  0.00000E+00  5.4E-05
  3.800E+00  1.09927E-03  1.17053E-24  4.18004E-08  0.00000E+00  1.6E-04
  3.900E+00  1.15786E-03  1.05498E-24  3.76739E-08  0.00000E+00  2.1E-04
  4.000E+00  1.21797E-03  9.53335E-25  3.40442E-08  0.00000E+00  2.0E-04
  4.100E+00  1.27961E-03  8.63639E-25  3.08411E-08  0.00000E+00  1.4E-04
  4.200E+00  1.34276E-03  7.84248E-25  2.80060E-08  0.00000E+00  5.5E-05
  4.300E+00  1.40743E-03  7.13770E-25  2.54892E-08  0.00000E+00  5.0E-05
  4.400E+00  1.47362E-03  6.51032E-25  2.32488E-08  0.00000E+00  1.2E-04
  4.500E+00  1.54133E-03  5.95037E-25  2.12491E-08  0.00000E+00  1.5E-04
  4.600E+00  1.61056E-03  5.44931E-25  1.94598E-08  0.00000E+00  1.4E-04
  4.700E+00  1.68131E-03  4.99990E-25  1.78550E-08  0.00000E+00  9.5E-05
  4.800E+00  1.75357E-03  4.59585E-25  1.64121E-08  0.00000E+00  3.1E-05
  4.900E+00  1.82735E-03  4.23179E-25  1.51120E-08  0.00000E+00  4.5E-05
  5.000E+00  1.90265E-03  3.90307E-25  1.39381E-08  0.00000E+00  9.2E-05
  5.100E+00  1.97947E-03  3.60563E-25  1.28760E-08  0.00000E+00  1.1E-04
  5.200E+00  2.05780E-03  3.33599E-25  1.19131E-08  0.00000E+00  1.0E-04
  5.300E+00  2.13765E-03  3.09108E-25  1.10384E-08  0.00000E+00  6.6E-05
  5.400E+00  2.21902E-03  2.86823E-25  1.02426E-08  0.00000E+00  1.6E-05
  5.500E+00  2.30190E-03  2.66509E-25  9.51720E-09  0.00000E+00  4.0E-05
  5.600E+00  2.38630E-03  2.47961E-25  8.85486E-09  0.00000E+00  7.4E-05
  5.700E+00  2.47222E-03  2.30999E-25  8.24911E-09  0.00000E+00  8.4E-05
  5.800E+00  2.55965E-03  2.15461E-25  7.69425E-09  0.00000E+00  7.4E-05
  5.900E+00  2.64859E-03  2.01208E-25  7.18525E-09  0.00000E+00  4.6E-05
  6.000E+00  2.73905E-03  1.88113E-25  6.71762E-09  0.00000E+00  7.7E-06
  6.100E+00  2.83103E-03  1.76065E-25  6.28741E-09  0.00000E+00  3.6E-05
  6.200E+00  2.92452E-03  1.64967E-25  5.89107E-09  0.00000E+00  6.0E-05
  6.300E+00  3.01952E-03  1.54728E-25  5.52545E-09  0.00000E+00  6.6E-05
  6.400E+00  3.11604E-03  1.45271E-25  5.18774E-09  0.00000E+00  5.6E-05
  6.500E+00  3.21407E-03  1.36526E-25  4.87542E-09  0.00000E+00  3.3E-05
  6.600E+00  3.31362E-03  1.28428E-25  4.58624E-09  0.00000E+00  4.4E-06
  6.700E+00  3.41468E-03  1.20921E-25  4.31817E-09  0.00000E+00  3.2E-05
  6.800E+00  3.51725E-03  1.13954E-25  4.06939E-09  0.00000E+00  4.9E-05
  6.900E+00  3.62133E-03  1.07482E-25  3.83825E-09  0.00000E+00  5.2E-05
  7.000E+00  3.72692E-03  1.01462E-25  3.62328E-09  0.00000E+00  4.3E-05
  7.100E+00  3.83403E-03  9.58578E-26  3.42314E-09  0.00000E+00  2.3E-05
  7.200E+00  3.94265E-03  9.06345E-26  3.23662E-09  0.00000E+00  7.2E-06
  7.300E+00  4.05278E-03  8.57620E-26  3.06262E-09  0.00000E+00  2.9E-05
  7.400E+00  4.16442E-03  8.12122E-26  2.90014E-09  0.00000E+00  4.1E-05
  7.500E+00  4.27757E-03  7.69599E-26  2.74829E-09  0.00000E+00  4.2E-05
  7.600E+00  4.39223E-03  7.29820E-26  2.60624E-09  0.00000E+00  3.4E-05
  7.700E+00  4.50840E-03  6.92576E-26  2.47323E-09  0.00000E+00  1.7E-05
  7.800E+00  4.62608E-03  6.57675E-26  2.34860E-09  0.00000E+00  8.8E-06
  7.900E+00  4.74527E-03  6.24943E-26  2.23171E-09  0.00000E+00  2.6E-05
  8.000E+00  4.86597E-03  5.94219E-26  2.12200E-09  0.00000E+00  3.5E-05
  8.100E+00  4.98817E-03  5.65359E-26  2.01893E-09  0.00000E+00  3.5E-05
  8.200E+00  5.11188E-03  5.38227E-26  1.92204E-09  0.00000E+00  2.7E-05
  8.300E+00  5.23711E-03  5.12702E-26  1.83089E-09  0.00000E+00  1.2E-05
  8.400E+00  5.36383E-03  4.88670E-26  1.74507E-09  0.00000E+00  9.8E-06
  8.500E+00  5.49207E-03  4.66028E-26  1.66422E-09  0.00000E+00  2.3E-05
  8.600E+00  5.62181E-03  4.44681E-26  1.58798E-09  0.00000E+00  3.0E-05
  8.700E+00  5.75306E-03  4.24541E-26  1.51606E-09  0.00000E+00  2.9E-05
  8.800E+00  5.88581E-03  4.05526E-26  1.44816E-09  0.00000E+00  2.1E-05
  8.900E+00  6.02007E-03  3.87562E-26  1.38401E-09  0.00000E+00  8.1E-06
  9.000E+00  6.15583E-03  3.70581E-26  1.32337E-09  0.00000E+00  1.0E-05
  9.100E+00  6.29310E-03  3.54519E-26  1.26601E-09  0.00000E+00  2.1E-05
  9.200E+00  6.43187E-03  3.39316E-26  1.21172E-09  0.00000E+00  2.5E-05
  9.300E+00  6.57214E-03  3.24918E-26  1.16030E-09  0.00000E+00  2.4E-05
  9.400E+00  6.71392E-03  3.11274E-26  1.11158E-09  0.00000E+00  1.7E-05
  9.500E+00  6.85720E-03  2.98338E-26  1.06538E-09  0.00000E+00  5.3E-06
  9.600E+00  7.00198E-03  2.86066E-26  1.02156E-09  0.00000E+00  1.0E-05
  9.700E+00  7.14827E-03  2.74417E-26  9.79962E-10  0.00000E+00  1.9E-05
  9.800E+00  7.29605E-03  2.63355E-26  9.40457E-10  0.00000E+00  2.2E-05
  9.900E+00  7.44534E-03  2.52843E-26  9.02918E-10  0.00000E+00  2.0E-05
  1.000E+01  7.59612E-03  2.42849E-26  8.67231E-10  0.00000E+00  1.3E-05
  1.025E+01  7.97965E-03  2.19939E-26  7.85417E-10  0.00000E+00  1.6E-05
  1.050E+01  8.37255E-03  1.99663E-26  7.13010E-10  0.00000E+00  1.7E-05
  1.075E+01  8.77480E-03  1.81666E-26  6.48742E-10  0.00000E+00  1.7E-05
  1.100E+01  9.18641E-03  1.65648E-26  5.91540E-10  0.00000E+00  1.6E-05
  1.125E+01  9.60736E-03  1.51353E-26  5.40493E-10  0.00000E+00  1.5E-05
  1.150E+01  1.00376E-02  1.38565E-26  4.94823E-10  0.00000E+00  1.4E-05
  1.175E+01  1.04773E-02  1.27095E-26  4.53865E-10  0.00000E+00  1.2E-05
  1.200E+01  1.09262E-02  1.16786E-26  4.17049E-10  0.00000E+00  9.3E-06
  1.225E+01  1.13844E-02  1.07498E-26  3.83881E-10  0.00000E+00  6.6E-06
  1.250E+01  1.18520E-02  9.91127E-27  3.53938E-10  0.00000E+00  3.8E-06
  1.275E+01  1.23288E-02  9.15271E-27  3.26849E-10  0.00000E+00  1.3E-06
  1.300E+01  1.28150E-02  8.46515E-27  3.02296E-10  0.00000E+00  3.7E-06
  1.325E+01  1.33104E-02  7.84076E-27  2.79999E-10  0.00000E+00  5.7E-06
  1.350E+01  1.38150E-02  7.27272E-27  2.59713E-10  0.00000E+00  7.2E-06
  1.375E+01  1.43290E-02  6.75502E-27  2.41226E-10  0.00000E+00  8.2E-06
  1.400E+01  1.48521E-02  6.28242E-27  2.24349E-10  0.00000E+00  8.6E-06
  1.425E+01  1.53845E-02  5.85030E-27  2.08918E-10  0.00000E+00  8.6E-06
