 #
 # Subroutine ELSEPA. Elastic scattering of electrons and positrons
 #                    by neutral atoms and positive ions
 #
 # Projectile: electron
 # Kinetic energy = 4.00000E+04 eV = 1.46997E+03 a.u.
 #
 # Element: Ag,  Z =  47,  atomic weight = 1.07868E+02 g/mol
 #
 # Nuclear model: Fermi distribution
 #                Average radius = 5.09348E-13 cm
 #                Skin thickness = 5.46000E-14 cm
 #
 # Number of electrons = 47
 #
 # Electron density: Read from file ./database/z_047.den                                                                                                    
 #                   Number of data points =  813
 #                   Volume integral = 4.70000E+01
 #
 # Furness-McCarthy exchange potential
 #
 # No absorption potential
 #
 # No correlation-polarization potential
 #
 # Integrated cross sections:
 # Total elastic cross section = 2.45602E-17 cm**2 = 8.77060E-01 a0**2
 # 1st transport cross section = 2.46121E-19 cm**2 = 8.78914E-03 a0**2
 # 2nd transport cross section = 5.66515E-19 cm**2 = 2.02306E-02 a0**2
 #
 #
 # Differential cross section:                       MU=(1-COS(THETA))/2
 #
 #  THETA        MU          DCS          DCS        Sherman      error
 #  (deg)                 (cm**2/sr)   (a0**2/sr)    function
 #----------------------------------------------------------------------
  0.000E+00  0.00000E+00  7.37909E-15  2.63512E+02  0.00000E+00  1.0E-07
  1.000E-04  7.61557E-13  7.37909E-15  2.63512E+02  5.77386E-10  1.0E-07
  1.250E-04  1.18994E-12  7.37908E-15  2.63512E+02  7.21733E-10  1.0E-07
  1.500E-04  1.71346E-12  7.37908E-15  2.63512E+02  8.66079E-10  1.0E-07
  1.750E-04  2.33225E-12  7.37908E-15  2.63512E+02  1.01043E-09  1.0E-07
  2.000E-04  3.04617E-12  7.37908E-15  2.63512E+02  1.15477E-09  1.0E-07
  2.250E-04  3.85530E-12  7.37908E-15  2.63512E+02  1.29912E-09  1.0E-07
  2.500E-04  4.75964E-12  7.37908E-15  2.63512E+02  1.44347E-09  1.0E-07
  2.750E-04  5.75917E-12  7.37908E-15  2.63512E+02  1.58781E-09  1.0E-07
  3.000E-04  6.85391E-12  7.37908E-15  2.63512E+02  1.73216E-09  1.0E-07
  3.250E-04  8.04379E-12  7.37908E-15  2.63512E+02  1.87651E-09  1.0E-07
  3.500E-04  9.32893E-12  7.37908E-15  2.63512E+02  2.02085E-09  1.0E-07
  3.750E-04  1.07092E-11  7.37908E-15  2.63512E+02  2.16520E-09  1.0E-07
  4.000E-04  1.21847E-11  7.37908E-15  2.63512E+02  2.30955E-09  1.0E-07
  4.250E-04  1.37554E-11  7.37908E-15  2.63512E+02  2.45389E-09  1.0E-07
  4.500E-04  1.54213E-11  7.37908E-15  2.63512E+02  2.59824E-09  1.0E-07
  4.750E-04  1.71823E-11  7.37908E-15  2.63512E+02  2.74258E-09  1.0E-07
  5.000E-04  1.90386E-11  7.37908E-15  2.63512E+02  2.88693E-09  1.0E-07
  5.250E-04  2.09900E-11  7.37908E-15  2.63512E+02  3.03128E-09  1.0E-07
  5.500E-04  2.30367E-11  7.37908E-15  2.63512E+02  3.17562E-09  1.0E-07
  5.750E-04  2.51785E-11  7.37908E-15  2.63512E+02  3.31997E-09  1.0E-07
  6.000E-04  2.74156E-11  7.37908E-15  2.63512E+02  3.46432E-09  1.0E-07
  6.250E-04  2.97478E-11  7.37908E-15  2.63512E+02  3.60866E-09  1.0E-07
  6.500E-04  3.21752E-11  7.37908E-15  2.63512E+02  3.75301E-09  1.0E-07
  6.750E-04  3.46979E-11  7.37908E-15  2.63512E+02  3.89736E-09  1.0E-07
  7.000E-04  3.73157E-11  7.37908E-15  2.63512E+02  4.04170E-09  1.0E-07
  7.250E-04  4.00286E-11  7.37908E-15  2.63512E+02  4.18605E-09  1.0E-07
  7.500E-04  4.28368E-11  7.37908E-15  2.63512E+02  4.33040E-09  1.0E-07
  7.750E-04  4.57402E-11  7.37908E-15  2.63512E+02  4.47474E-09  1.0E-07
  8.000E-04  4.87388E-11  7.37908E-15  2.63512E+02  4.61909E-09  1.0E-07
  8.250E-04  5.18325E-11  7.37908E-15  2.63512E+02  4.76344E-09  1.0E-07
  8.500E-04  5.50215E-11  7.37908E-15  2.63512E+02  4.90778E-09  1.0E-07
  8.750E-04  5.83057E-11  7.37908E-15  2.63512E+02  5.05213E-09  1.0E-07
  9.000E-04  6.16850E-11  7.37908E-15  2.63512E+02  5.19648E-09  1.0E-07
  9.250E-04  6.51595E-11  7.37908E-15  2.63512E+02  5.34082E-09  1.0E-07
  9.500E-04  6.87293E-11  7.37908E-15  2.63512E+02  5.48517E-09  1.0E-07
  9.750E-04  7.23943E-11  7.37908E-15  2.63512E+02  5.62952E-09  1.0E-07
  1.000E-03  7.61544E-11  7.37908E-15  2.63512E+02  5.77386E-09  1.0E-07
  1.250E-03  1.18991E-10  7.37907E-15  2.63512E+02  7.21733E-09  1.0E-07
  1.500E-03  1.71347E-10  7.37907E-15  2.63511E+02  8.66080E-09  1.0E-07
  1.750E-03  2.33223E-10  7.37906E-15  2.63511E+02  1.01043E-08  1.0E-07
  2.000E-03  3.04617E-10  7.37906E-15  2.63511E+02  1.15477E-08  1.0E-07
  2.250E-03  3.85531E-10  7.37905E-15  2.63511E+02  1.29912E-08  1.0E-07
  2.500E-03  4.75965E-10  7.37904E-15  2.63510E+02  1.44347E-08  1.0E-07
  2.750E-03  5.75917E-10  7.37903E-15  2.63510E+02  1.58782E-08  1.0E-07
  3.000E-03  6.85389E-10  7.37902E-15  2.63510E+02  1.73217E-08  1.0E-07
  3.250E-03  8.04380E-10  7.37901E-15  2.63509E+02  1.87651E-08  1.0E-07
  3.500E-03  9.32891E-10  7.37900E-15  2.63509E+02  2.02086E-08  1.0E-07
  3.750E-03  1.07092E-09  7.37899E-15  2.63508E+02  2.16521E-08  1.0E-07
  4.000E-03  1.21847E-09  7.37897E-15  2.63508E+02  2.30956E-08  1.0E-07
  4.250E-03  1.37554E-09  7.37896E-15  2.63507E+02  2.45391E-08  1.0E-07
  4.500E-03  1.54213E-09  7.37894E-15  2.63507E+02  2.59826E-08  1.0E-07
  4.750E-03  1.71823E-09  7.37893E-15  2.63506E+02  2.74261E-08  1.0E-07
  5.000E-03  1.90386E-09  7.37891E-15  2.63506E+02  2.88696E-08  1.0E-07
  5.250E-03  2.09900E-09  7.37889E-15  2.63505E+02  3.03132E-08  1.0E-07
  5.500E-03  2.30367E-09  7.37887E-15  2.63504E+02  3.17567E-08  1.0E-07
  5.750E-03  2.51785E-09  7.37885E-15  2.63504E+02  3.32002E-08  1.0E-07
  6.000E-03  2.74156E-09  7.37883E-15  2.63503E+02  3.46438E-08  1.0E-07
  6.250E-03  2.97478E-09  7.37881E-15  2.63502E+02  3.60873E-08  1.0E-07
  6.500E-03  3.21752E-09  7.37879E-15  2.63501E+02  3.75308E-08  1.0E-07
  6.750E-03  3.46978E-09  7.37876E-15  2.63500E+02  3.89744E-08  1.0E-07
  7.000E-03  3.73156E-09  7.37874E-15  2.63500E+02  4.04180E-08  1.0E-07
  7.250E-03  4.00286E-09  7.37872E-15  2.63499E+02  4.18615E-08  1.0E-07
  7.500E-03  4.28368E-09  7.37869E-15  2.63498E+02  4.33051E-08  1.0E-07
  7.750E-03  4.57402E-09  7.37866E-15  2.63497E+02  4.47487E-08  1.0E-07
  8.000E-03  4.87388E-09  7.37864E-15  2.63496E+02  4.61923E-08  1.0E-07
  8.250E-03  5.18326E-09  7.37861E-15  2.63495E+02  4.76359E-08  1.0E-07
  8.500E-03  5.50215E-09  7.37858E-15  2.63494E+02  4.90795E-08  1.0E-07
  8.750E-03  5.83057E-09  7.37855E-15  2.63493E+02  5.05231E-08  1.0E-07
  9.000E-03  6.16850E-09  7.37852E-15  2.63492E+02  5.19667E-08  1.0E-07
  9.250E-03  6.51596E-09  7.37848E-15  2.63490E+02  5.34103E-08  1.0E-07
  9.500E-03  6.87293E-09  7.37845E-15  2.63489E+02  5.48540E-08  1.0E-07
  9.750E-03  7.23942E-09  7.37842E-15  2.63488E+02  5.62976E-08  1.0E-07
  1.000E-02  7.61544E-09  7.37838E-15  2.63487E+02  5.77413E-08  1.0E-07
  1.250E-02  1.18991E-08  7.37799E-15  2.63473E+02  7.21785E-08  1.0E-07
  1.500E-02  1.71347E-08  7.37750E-15  2.63455E+02  8.66170E-08  1.0E-07
  1.750E-02  2.33223E-08  7.37693E-15  2.63435E+02  1.01057E-07  1.0E-07
  2.000E-02  3.04617E-08  7.37627E-15  2.63412E+02  1.15499E-07  1.0E-07
  2.250E-02  3.85531E-08  7.37553E-15  2.63385E+02  1.29942E-07  1.0E-07
  2.500E-02  4.75965E-08  7.37469E-15  2.63355E+02  1.44388E-07  1.0E-07
  2.750E-02  5.75917E-08  7.37377E-15  2.63322E+02  1.58837E-07  1.0E-07
  3.000E-02  6.85389E-08  7.37276E-15  2.63286E+02  1.73288E-07  1.0E-07
  3.250E-02  8.04380E-08  7.37167E-15  2.63247E+02  1.87742E-07  1.0E-07
  3.500E-02  9.32891E-08  7.37048E-15  2.63205E+02  2.02200E-07  1.0E-07
  3.750E-02  1.07092E-07  7.36921E-15  2.63159E+02  2.16661E-07  1.0E-07
  4.000E-02  1.21847E-07  7.36786E-15  2.63111E+02  2.31126E-07  1.0E-07
  4.250E-02  1.37554E-07  7.36641E-15  2.63059E+02  2.45595E-07  1.0E-07
  4.500E-02  1.54213E-07  7.36488E-15  2.63005E+02  2.60068E-07  1.0E-07
  4.750E-02  1.71823E-07  7.36326E-15  2.62947E+02  2.74545E-07  1.0E-07
  5.000E-02  1.90386E-07  7.36155E-15  2.62886E+02  2.89028E-07  1.0E-07
  5.250E-02  2.09900E-07  7.35976E-15  2.62822E+02  3.03515E-07  1.0E-07
  5.500E-02  2.30367E-07  7.35788E-15  2.62755E+02  3.18008E-07  1.0E-07
  5.750E-02  2.51785E-07  7.35592E-15  2.62685E+02  3.32506E-07  1.0E-07
  6.000E-02  2.74156E-07  7.35387E-15  2.62611E+02  3.47010E-07  1.0E-07
  6.250E-02  2.97478E-07  7.35173E-15  2.62535E+02  3.61520E-07  1.0E-07
  6.500E-02  3.21752E-07  7.34950E-15  2.62456E+02  3.76036E-07  1.0E-07
  6.750E-02  3.46978E-07  7.34720E-15  2.62373E+02  3.90558E-07  1.0E-07
  7.000E-02  3.73156E-07  7.34480E-15  2.62288E+02  4.05088E-07  1.0E-07
  7.250E-02  4.00286E-07  7.34232E-15  2.62199E+02  4.19624E-07  1.0E-07
  7.500E-02  4.28368E-07  7.33975E-15  2.62107E+02  4.34168E-07  1.0E-07
  7.750E-02  4.57402E-07  7.33710E-15  2.62013E+02  4.48719E-07  1.0E-07
  8.000E-02  4.87388E-07  7.33437E-15  2.61915E+02  4.63278E-07  1.0E-07
  8.250E-02  5.18325E-07  7.33155E-15  2.61814E+02  4.77845E-07  1.0E-07
  8.500E-02  5.50215E-07  7.32864E-15  2.61711E+02  4.92420E-07  1.0E-07
  8.750E-02  5.83057E-07  7.32565E-15  2.61604E+02  5.07004E-07  1.0E-07
  9.000E-02  6.16850E-07  7.32258E-15  2.61494E+02  5.21596E-07  1.0E-07
  9.250E-02  6.51596E-07  7.31942E-15  2.61381E+02  5.36197E-07  1.0E-07
  9.500E-02  6.87293E-07  7.31618E-15  2.61265E+02  5.50808E-07  1.0E-07
  9.750E-02  7.23942E-07  7.31285E-15  2.61147E+02  5.65428E-07  1.0E-07
  1.000E-01  7.61543E-07  7.30944E-15  2.61025E+02  5.80058E-07  1.0E-07
  1.250E-01  1.18991E-06  7.27083E-15  2.59646E+02  7.26945E-07  1.0E-07
  1.500E-01  1.71347E-06  7.22417E-15  2.57980E+02  8.75072E-07  1.0E-07
  1.750E-01  2.33223E-06  7.16978E-15  2.56038E+02  1.02468E-06  1.0E-07
  2.000E-01  3.04617E-06  7.10801E-15  2.53832E+02  1.17601E-06  1.0E-07
  2.250E-01  3.85531E-06  7.03924E-15  2.51376E+02  1.32929E-06  1.0E-07
  2.500E-01  4.75964E-06  6.96391E-15  2.48686E+02  1.48474E-06  1.0E-07
  2.750E-01  5.75916E-06  6.88247E-15  2.45777E+02  1.64260E-06  1.0E-07
  3.000E-01  6.85388E-06  6.79538E-15  2.42668E+02  1.80307E-06  1.0E-07
  3.250E-01  8.04378E-06  6.70315E-15  2.39374E+02  1.96636E-06  1.0E-07
  3.500E-01  9.32888E-06  6.60625E-15  2.35914E+02  2.13268E-06  1.0E-07
  3.750E-01  1.07092E-05  6.50520E-15  2.32305E+02  2.30221E-06  1.0E-07
  4.000E-01  1.21846E-05  6.40050E-15  2.28566E+02  2.47515E-06  1.0E-07
  4.250E-01  1.37553E-05  6.29262E-15  2.24714E+02  2.65168E-06  1.0E-07
  4.500E-01  1.54212E-05  6.18206E-15  2.20765E+02  2.83195E-06  1.0E-07
  4.750E-01  1.71822E-05  6.06927E-15  2.16738E+02  3.01614E-06  1.0E-07
  5.000E-01  1.90385E-05  5.95470E-15  2.12646E+02  3.20440E-06  1.0E-07
  5.250E-01  2.09899E-05  5.83878E-15  2.08507E+02  3.39688E-06  1.0E-07
  5.500E-01  2.30365E-05  5.72191E-15  2.04333E+02  3.59372E-06  1.0E-07
  5.750E-01  2.51783E-05  5.60445E-15  2.00139E+02  3.79504E-06  1.0E-07
  6.000E-01  2.74153E-05  5.48676E-15  1.95936E+02  4.00099E-06  1.0E-07
  6.250E-01  2.97475E-05  5.36916E-15  1.91736E+02  4.21166E-06  1.0E-07
  6.500E-01  3.21749E-05  5.25195E-15  1.87551E+02  4.42718E-06  1.0E-07
  6.750E-01  3.46974E-05  5.13539E-15  1.83388E+02  4.64770E-06  1.0E-07
  7.000E-01  3.73152E-05  5.01972E-15  1.79258E+02  4.87319E-06  1.0E-07
  7.250E-01  4.00281E-05  4.90516E-15  1.75166E+02  5.10384E-06  1.0E-07
  7.500E-01  4.28362E-05  4.79189E-15  1.71122E+02  5.33974E-06  1.0E-07
  7.750E-01  4.57395E-05  4.68009E-15  1.67129E+02  5.58098E-06  1.0E-07
  8.000E-01  4.87380E-05  4.56989E-15  1.63194E+02  5.82764E-06  1.0E-07
  8.250E-01  5.18317E-05  4.46142E-15  1.59320E+02  6.07980E-06  1.0E-07
  8.500E-01  5.50205E-05  4.35479E-15  1.55512E+02  6.33752E-06  1.0E-07
  8.750E-01  5.83045E-05  4.25007E-15  1.51773E+02  6.60089E-06  1.0E-07
  9.000E-01  6.16838E-05  4.14734E-15  1.48104E+02  6.86998E-06  1.0E-07
  9.250E-01  6.51582E-05  4.04665E-15  1.44508E+02  7.14484E-06  1.0E-07
  9.500E-01  6.87277E-05  3.94804E-15  1.40987E+02  7.42555E-06  1.0E-07
  9.750E-01  7.23925E-05  3.85154E-15  1.37541E+02  7.71218E-06  1.0E-07
  1.000E+00  7.61524E-05  3.75716E-15  1.34171E+02  8.00479E-06  1.0E-07
  1.100E+00  9.21439E-05  3.40093E-15  1.21449E+02  9.23644E-06  1.0E-07
  1.200E+00  1.09658E-04  3.07799E-15  1.09917E+02  1.05693E-05  1.0E-07
  1.300E+00  1.28695E-04  2.78643E-15  9.95053E+01  1.20081E-05  1.0E-07
  1.400E+00  1.49255E-04  2.52375E-15  9.01246E+01  1.35578E-05  1.0E-07
  1.500E+00  1.71338E-04  2.28726E-15  8.16794E+01  1.52238E-05  1.0E-07
  1.600E+00  1.94942E-04  2.07435E-15  7.40765E+01  1.70119E-05  1.0E-07
  1.700E+00  2.20070E-04  1.88259E-15  6.72287E+01  1.89284E-05  1.0E-07
  1.800E+00  2.46720E-04  1.70977E-15  6.10570E+01  2.09799E-05  1.0E-07
  1.900E+00  2.74892E-04  1.55390E-15  5.54909E+01  2.31731E-05  1.0E-07
  2.000E+00  3.04586E-04  1.41323E-15  5.04674E+01  2.55151E-05  1.0E-07
  2.100E+00  3.35803E-04  1.28619E-15  4.59307E+01  2.80132E-05  1.0E-07
  2.200E+00  3.68542E-04  1.17140E-15  4.18314E+01  3.06746E-05  1.0E-07
  2.300E+00  4.02802E-04  1.06762E-15  3.81253E+01  3.35067E-05  1.0E-07
  2.400E+00  4.38585E-04  9.73753E-16  3.47734E+01  3.65169E-05  1.0E-07
  2.500E+00  4.75889E-04  8.88821E-16  3.17404E+01  3.97124E-05  1.0E-07
  2.600E+00  5.14715E-04  8.11943E-16  2.89950E+01  4.31003E-05  1.0E-07
  2.700E+00  5.55063E-04  7.42329E-16  2.65090E+01  4.66877E-05  1.0E-07
  2.800E+00  5.96931E-04  6.79270E-16  2.42572E+01  5.04813E-05  1.0E-07
  2.900E+00  6.40321E-04  6.22128E-16  2.22166E+01  5.44876E-05  1.0E-07
  3.000E+00  6.85233E-04  5.70327E-16  2.03667E+01  5.87129E-05  1.0E-07
  3.100E+00  7.31665E-04  5.23350E-16  1.86892E+01  6.31630E-05  1.0E-07
  3.200E+00  7.79618E-04  4.80728E-16  1.71671E+01  6.78434E-05  1.0E-07
  3.300E+00  8.29092E-04  4.42040E-16  1.57855E+01  7.27590E-05  1.0E-07
  3.400E+00  8.80086E-04  4.06905E-16  1.45308E+01  7.79146E-05  1.0E-07
  3.500E+00  9.32601E-04  3.74979E-16  1.33907E+01  8.33141E-05  1.0E-07
  3.600E+00  9.86636E-04  3.45952E-16  1.23542E+01  8.89614E-05  1.0E-07
  3.700E+00  1.04219E-03  3.19545E-16  1.14112E+01  9.48595E-05  1.0E-07
  3.800E+00  1.09927E-03  2.95504E-16  1.05527E+01  1.01011E-04  1.0E-07
  3.900E+00  1.15786E-03  2.73603E-16  9.77053E+00  1.07418E-04  1.0E-07
  4.000E+00  1.21797E-03  2.53634E-16  9.05745E+00  1.14083E-04  1.0E-07
  4.100E+00  1.27961E-03  2.35414E-16  8.40680E+00  1.21007E-04  1.0E-07
  4.200E+00  1.34276E-03  2.18775E-16  7.81260E+00  1.28191E-04  1.0E-07
  4.300E+00  1.40743E-03  2.03566E-16  7.26947E+00  1.35635E-04  1.0E-07
  4.400E+00  1.47362E-03  1.89651E-16  6.77257E+00  1.43340E-04  1.0E-07
  4.500E+00  1.54133E-03  1.76908E-16  6.31751E+00  1.51306E-04  1.0E-07
  4.600E+00  1.61056E-03  1.65227E-16  5.90035E+00  1.59533E-04  1.0E-07
  4.700E+00  1.68131E-03  1.54507E-16  5.51754E+00  1.68021E-04  1.0E-07
  4.800E+00  1.75357E-03  1.44659E-16  5.16587E+00  1.76770E-04  1.0E-07
  4.900E+00  1.82735E-03  1.35602E-16  4.84245E+00  1.85778E-04  1.0E-07
  5.000E+00  1.90265E-03  1.27264E-16  4.54468E+00  1.95047E-04  1.0E-07
  5.100E+00  1.97947E-03  1.19578E-16  4.27021E+00  2.04575E-04  1.0E-07
  5.200E+00  2.05780E-03  1.12485E-16  4.01692E+00  2.14363E-04  1.0E-07
  5.300E+00  2.13765E-03  1.05932E-16  3.78290E+00  2.24411E-04  1.0E-07
  5.400E+00  2.21902E-03  9.98703E-17  3.56643E+00  2.34718E-04  1.0E-07
  5.500E+00  2.30190E-03  9.42562E-17  3.36595E+00  2.45285E-04  1.0E-07
  5.600E+00  2.38630E-03  8.90506E-17  3.18005E+00  2.56112E-04  1.0E-07
  5.700E+00  2.47222E-03  8.42179E-17  3.00748E+00  2.67201E-04  1.0E-07
  5.800E+00  2.55965E-03  7.97260E-17  2.84707E+00  2.78552E-04  1.0E-07
  5.900E+00  2.64859E-03  7.55459E-17  2.69779E+00  2.90166E-04  1.0E-07
  6.000E+00  2.73905E-03  7.16512E-17  2.55871E+00  3.02045E-04  1.0E-07
  6.100E+00  2.83103E-03  6.80184E-17  2.42898E+00  3.14189E-04  1.0E-07
  6.200E+00  2.92452E-03  6.46257E-17  2.30783E+00  3.26601E-04  1.0E-07
  6.300E+00  3.01952E-03  6.14537E-17  2.19455E+00  3.39282E-04  1.0E-07
  6.400E+00  3.11604E-03  5.84848E-17  2.08853E+00  3.52234E-04  1.0E-07
  6.500E+00  3.21407E-03  5.57028E-17  1.98918E+00  3.65460E-04  1.0E-07
  6.600E+00  3.31362E-03  5.30931E-17  1.89599E+00  3.78960E-04  1.0E-07
  6.700E+00  3.41468E-03  5.06425E-17  1.80848E+00  3.92738E-04  1.0E-07
  6.800E+00  3.51725E-03  4.83390E-17  1.72622E+00  4.06794E-04  1.0E-07
  6.900E+00  3.62133E-03  4.61714E-17  1.64881E+00  4.21133E-04  1.0E-07
  7.000E+00  3.72692E-03  4.41298E-17  1.57590E+00  4.35755E-04  1.0E-07
  7.100E+00  3.83403E-03  4.22050E-17  1.50717E+00  4.50662E-04  1.0E-07
  7.200E+00  3.94265E-03  4.03887E-17  1.44231E+00  4.65857E-04  1.0E-07
  7.300E+00  4.05278E-03  3.86731E-17  1.38104E+00  4.81342E-04  1.0E-07
  7.400E+00  4.16442E-03  3.70514E-17  1.32313E+00  4.97117E-04  1.0E-07
  7.500E+00  4.27757E-03  3.55171E-17  1.26834E+00  5.13186E-04  1.0E-07
  7.600E+00  4.39223E-03  3.40643E-17  1.21646E+00  5.29550E-04  1.0E-07
  7.700E+00  4.50840E-03  3.26875E-17  1.16729E+00  5.46209E-04  1.0E-07
  7.800E+00  4.62608E-03  3.13819E-17  1.12067E+00  5.63166E-04  1.0E-07
  7.900E+00  4.74527E-03  3.01428E-17  1.07642E+00  5.80420E-04  1.0E-07
  8.000E+00  4.86597E-03  2.89661E-17  1.03440E+00  5.97974E-04  1.0E-07
  8.100E+00  4.98817E-03  2.78477E-17  9.94459E-01  6.15828E-04  1.0E-07
  8.200E+00  5.11188E-03  2.67842E-17  9.56480E-01  6.33982E-04  1.0E-07
  8.300E+00  5.23711E-03  2.57721E-17  9.20339E-01  6.52436E-04  1.0E-07
  8.400E+00  5.36383E-03  2.48085E-17  8.85927E-01  6.71191E-04  1.0E-07
  8.500E+00  5.49207E-03  2.38904E-17  8.53141E-01  6.90246E-04  1.0E-07
  8.600E+00  5.62181E-03  2.30152E-17  8.21888E-01  7.09600E-04  1.0E-07
  8.700E+00  5.75306E-03  2.21804E-17  7.92078E-01  7.29254E-04  1.0E-07
  8.800E+00  5.88581E-03  2.13838E-17  7.63631E-01  7.49206E-04  1.0E-07
  8.900E+00  6.02007E-03  2.06232E-17  7.36470E-01  7.69455E-04  1.0E-07
  9.000E+00  6.15583E-03  1.98967E-17  7.10523E-01  7.90000E-04  1.0E-07
  9.100E+00  6.29310E-03  1.92023E-17  6.85726E-01  8.10838E-04  1.0E-07
  9.200E+00  6.43187E-03  1.85383E-17  6.62016E-01  8.31969E-04  1.0E-07
  9.300E+00  6.57214E-03  1.79032E-17  6.39335E-01  8.53390E-04  1.0E-07
  9.400E+00  6.71392E-03  1.72954E-17  6.17629E-01  8.75098E-04  1.0E-07
  9.500E+00  6.85720E-03  1.67134E-17  5.96848E-01  8.97091E-04  1.0E-07
  9.600E+00  7.00198E-03  1.61561E-17  5.76943E-01  9.19367E-04  1.0E-07
  9.700E+00  7.14827E-03  1.56220E-17  5.57871E-01  9.41922E-04  1.0E-07
  9.800E+00  7.29605E-03  1.51101E-17  5.39590E-01  9.64753E-04  1.0E-07
  9.900E+00  7.44534E-03  1.46192E-17  5.22060E-01  9.87856E-04  1.0E-07
  1.000E+01  7.59612E-03  1.41483E-17  5.05244E-01  1.01123E-03  1.0E-07
  1.025E+01  7.97965E-03  1.30523E-17  4.66105E-01  1.07081E-03  1.0E-07
  1.050E+01  8.37255E-03  1.20616E-17  4.30727E-01  1.13198E-03  1.0E-07
  1.075E+01  8.77480E-03  1.11643E-17  3.98684E-01  1.19467E-03  1.0E-07
  1.100E+01  9.18641E-03  1.03500E-17  3.69605E-01  1.25880E-03  1.0E-07
  1.125E+01  9.60736E-03  9.60972E-18  3.43169E-01  1.32428E-03  1.0E-07
  1.150E+01  1.00376E-02  8.93555E-18  3.19094E-01  1.39103E-03  1.0E-07
  1.175E+01  1.04773E-02  8.32055E-18  2.97132E-01  1.45895E-03  1.0E-07
  1.200E+01  1.09262E-02  7.75861E-18  2.77065E-01  1.52795E-03  1.0E-07
  1.225E+01  1.13844E-02  7.24434E-18  2.58700E-01  1.59793E-03  1.0E-07
  1.250E+01  1.18520E-02  6.77298E-18  2.41868E-01  1.66880E-03  1.0E-07
  1.275E+01  1.23288E-02  6.34030E-18  2.26416E-01  1.74044E-03  1.0E-07
  1.300E+01  1.28150E-02  5.94254E-18  2.12212E-01  1.81277E-03  1.0E-07
  1.325E+01  1.33104E-02  5.57636E-18  1.99135E-01  1.88568E-03  1.0E-07
  1.350E+01  1.38150E-02  5.23878E-18  1.87080E-01  1.95907E-03  1.0E-07
  1.375E+01  1.43290E-02  4.92713E-18  1.75951E-01  2.03286E-03  1.0E-07
  1.400E+01  1.48521E-02  4.63903E-18  1.65663E-01  2.10694E-03  1.0E-07
  1.425E+01  1.53845E-02  4.37234E-18  1.56139E-01  2.18123E-03  1.0E-07
  1.450E+01  1.59262E-02  4.12517E-18  1.47312E-01  2.25563E-03  1.0E-07
  1.475E+01  1.64770E-02  3.89578E-18  1.39121E-01  2.33006E-03  1.0E-07
