 #
 # Subroutine ELSEPA. Elastic scattering of electrons and positrons
 #                    by neutral atoms and positive ions
 #
 # Projectile: electron
 # Kinetic energy = 5.00000E+04 eV = 1.83747E+03 a.u.
 #
 # Element: Ag,  Z =  47,  atomic weight = 1.07868E+02 g/mol
 #
 # Nuclear model: Fermi distribution
 #                Average radius = 5.09348E-13 cm
 #                Skin thickness = 5.46000E-14 cm
 #
 # Number of electrons = 47
 #
 # Electron density: Read from file ./database/z_047.den                                                                                                    
 #                   Number of data points =  813
 #                   Volume integral = 4.70000E+01
 #
 # Furness-McCarthy exchange potential
 #
 # No absorption potential
 #
 # No correlation-polarization potential
 #
 # Integrated cross sections:
 # Total elastic cross section = 2.09768E-17 cm**2 = 7.49097E-01 a0**2
 # 1st transport cross section = 1.70778E-19 cm**2 = 6.09860E-03 a0**2
 # 2nd transport cross section = 4.00801E-19 cm**2 = 1.43129E-02 a0**2
 #
 #
 # Differential cross section:                       MU=(1-COS(THETA))/2
 #
 #  THETA        MU          DCS          DCS        Sherman      error
 #  (deg)                 (cm**2/sr)   (a0**2/sr)    function
 #----------------------------------------------------------------------
  0.000E+00  0.00000E+00  7.82997E-15  2.79613E+02  0.00000E+00  1.0E-07
  1.000E-04  7.61557E-13  7.82997E-15  2.79613E+02  6.58293E-10  1.0E-07
  1.250E-04  1.18994E-12  7.82997E-15  2.79613E+02  8.22866E-10  1.0E-07
  1.500E-04  1.71346E-12  7.82997E-15  2.79613E+02  9.87439E-10  1.0E-07
  1.750E-04  2.33225E-12  7.82997E-15  2.79613E+02  1.15201E-09  1.0E-07
  2.000E-04  3.04617E-12  7.82997E-15  2.79613E+02  1.31659E-09  1.0E-07
  2.250E-04  3.85530E-12  7.82997E-15  2.79613E+02  1.48116E-09  1.0E-07
  2.500E-04  4.75964E-12  7.82997E-15  2.79613E+02  1.64573E-09  1.0E-07
  2.750E-04  5.75917E-12  7.82997E-15  2.79613E+02  1.81031E-09  1.0E-07
  3.000E-04  6.85391E-12  7.82997E-15  2.79613E+02  1.97488E-09  1.0E-07
  3.250E-04  8.04379E-12  7.82997E-15  2.79613E+02  2.13945E-09  1.0E-07
  3.500E-04  9.32893E-12  7.82997E-15  2.79613E+02  2.30403E-09  1.0E-07
  3.750E-04  1.07092E-11  7.82997E-15  2.79613E+02  2.46860E-09  1.0E-07
  4.000E-04  1.21847E-11  7.82997E-15  2.79613E+02  2.63317E-09  1.0E-07
  4.250E-04  1.37554E-11  7.82997E-15  2.79613E+02  2.79775E-09  1.0E-07
  4.500E-04  1.54213E-11  7.82997E-15  2.79613E+02  2.96232E-09  1.0E-07
  4.750E-04  1.71823E-11  7.82997E-15  2.79613E+02  3.12689E-09  1.0E-07
  5.000E-04  1.90386E-11  7.82997E-15  2.79613E+02  3.29146E-09  1.0E-07
  5.250E-04  2.09900E-11  7.82997E-15  2.79613E+02  3.45604E-09  1.0E-07
  5.500E-04  2.30367E-11  7.82997E-15  2.79613E+02  3.62061E-09  1.0E-07
  5.750E-04  2.51785E-11  7.82997E-15  2.79613E+02  3.78518E-09  1.0E-07
  6.000E-04  2.74156E-11  7.82997E-15  2.79613E+02  3.94976E-09  1.0E-07
  6.250E-04  2.97478E-11  7.82997E-15  2.79613E+02  4.11433E-09  1.0E-07
  6.500E-04  3.21752E-11  7.82997E-15  2.79613E+02  4.27890E-09  1.0E-07
  6.750E-04  3.46979E-11  7.82997E-15  2.79613E+02  4.44348E-09  1.0E-07
  7.000E-04  3.73157E-11  7.82997E-15  2.79613E+02  4.60805E-09  1.0E-07
  7.250E-04  4.00286E-11  7.82997E-15  2.79613E+02  4.77262E-09  1.0E-07
  7.500E-04  4.28368E-11  7.82997E-15  2.79613E+02  4.93720E-09  1.0E-07
  7.750E-04  4.57402E-11  7.82997E-15  2.79613E+02  5.10177E-09  1.0E-07
  8.000E-04  4.87388E-11  7.82997E-15  2.79613E+02  5.26634E-09  1.0E-07
  8.250E-04  5.18325E-11  7.82997E-15  2.79613E+02  5.43092E-09  1.0E-07
  8.500E-04  5.50215E-11  7.82997E-15  2.79613E+02  5.59549E-09  1.0E-07
  8.750E-04  5.83057E-11  7.82997E-15  2.79613E+02  5.76007E-09  1.0E-07
  9.000E-04  6.16850E-11  7.82997E-15  2.79613E+02  5.92464E-09  1.0E-07
  9.250E-04  6.51595E-11  7.82996E-15  2.79613E+02  6.08921E-09  1.0E-07
  9.500E-04  6.87293E-11  7.82996E-15  2.79613E+02  6.25379E-09  1.0E-07
  9.750E-04  7.23943E-11  7.82996E-15  2.79613E+02  6.41836E-09  1.0E-07
  1.000E-03  7.61544E-11  7.82996E-15  2.79613E+02  6.58293E-09  1.0E-07
  1.250E-03  1.18991E-10  7.82996E-15  2.79613E+02  8.22867E-09  1.0E-07
  1.500E-03  1.71347E-10  7.82995E-15  2.79613E+02  9.87441E-09  1.0E-07
  1.750E-03  2.33223E-10  7.82994E-15  2.79612E+02  1.15201E-08  1.0E-07
  2.000E-03  3.04617E-10  7.82994E-15  2.79612E+02  1.31659E-08  1.0E-07
  2.250E-03  3.85531E-10  7.82993E-15  2.79612E+02  1.48116E-08  1.0E-07
  2.500E-03  4.75965E-10  7.82991E-15  2.79611E+02  1.64574E-08  1.0E-07
  2.750E-03  5.75917E-10  7.82990E-15  2.79611E+02  1.81031E-08  1.0E-07
  3.000E-03  6.85389E-10  7.82989E-15  2.79610E+02  1.97489E-08  1.0E-07
  3.250E-03  8.04380E-10  7.82987E-15  2.79610E+02  2.13946E-08  1.0E-07
  3.500E-03  9.32891E-10  7.82986E-15  2.79609E+02  2.30404E-08  1.0E-07
  3.750E-03  1.07092E-09  7.82984E-15  2.79609E+02  2.46862E-08  1.0E-07
  4.000E-03  1.21847E-09  7.82982E-15  2.79608E+02  2.63320E-08  1.0E-07
  4.250E-03  1.37554E-09  7.82980E-15  2.79607E+02  2.79777E-08  1.0E-07
  4.500E-03  1.54213E-09  7.82978E-15  2.79607E+02  2.96235E-08  1.0E-07
  4.750E-03  1.71823E-09  7.82976E-15  2.79606E+02  3.12693E-08  1.0E-07
  5.000E-03  1.90386E-09  7.82974E-15  2.79605E+02  3.29151E-08  1.0E-07
  5.250E-03  2.09900E-09  7.82972E-15  2.79604E+02  3.45609E-08  1.0E-07
  5.500E-03  2.30367E-09  7.82969E-15  2.79603E+02  3.62067E-08  1.0E-07
  5.750E-03  2.51785E-09  7.82966E-15  2.79602E+02  3.78526E-08  1.0E-07
  6.000E-03  2.74156E-09  7.82964E-15  2.79601E+02  3.94984E-08  1.0E-07
  6.250E-03  2.97478E-09  7.82961E-15  2.79600E+02  4.11442E-08  1.0E-07
  6.500E-03  3.21752E-09  7.82958E-15  2.79599E+02  4.27901E-08  1.0E-07
  6.750E-03  3.46978E-09  7.82955E-15  2.79598E+02  4.44359E-08  1.0E-07
  7.000E-03  3.73156E-09  7.82952E-15  2.79597E+02  4.60818E-08  1.0E-07
  7.250E-03  4.00286E-09  7.82948E-15  2.79596E+02  4.77277E-08  1.0E-07
  7.500E-03  4.28368E-09  7.82945E-15  2.79595E+02  4.93736E-08  1.0E-07
  7.750E-03  4.57402E-09  7.82941E-15  2.79593E+02  5.10194E-08  1.0E-07
  8.000E-03  4.87388E-09  7.82938E-15  2.79592E+02  5.26654E-08  1.0E-07
  8.250E-03  5.18326E-09  7.82934E-15  2.79591E+02  5.43113E-08  1.0E-07
  8.500E-03  5.50215E-09  7.82930E-15  2.79589E+02  5.59572E-08  1.0E-07
  8.750E-03  5.83057E-09  7.82926E-15  2.79588E+02  5.76031E-08  1.0E-07
  9.000E-03  6.16850E-09  7.82922E-15  2.79586E+02  5.92491E-08  1.0E-07
  9.250E-03  6.51596E-09  7.82917E-15  2.79585E+02  6.08951E-08  1.0E-07
  9.500E-03  6.87293E-09  7.82913E-15  2.79583E+02  6.25410E-08  1.0E-07
  9.750E-03  7.23942E-09  7.82909E-15  2.79582E+02  6.41870E-08  1.0E-07
  1.000E-02  7.61544E-09  7.82904E-15  2.79580E+02  6.58330E-08  1.0E-07
  1.250E-02  1.18991E-08  7.82851E-15  2.79561E+02  8.22940E-08  1.0E-07
  1.500E-02  1.71347E-08  7.82787E-15  2.79538E+02  9.87566E-08  1.0E-07
  1.750E-02  2.33223E-08  7.82712E-15  2.79511E+02  1.15221E-07  1.0E-07
  2.000E-02  3.04617E-08  7.82624E-15  2.79480E+02  1.31689E-07  1.0E-07
  2.250E-02  3.85531E-08  7.82525E-15  2.79445E+02  1.48159E-07  1.0E-07
  2.500E-02  4.75965E-08  7.82414E-15  2.79405E+02  1.64632E-07  1.0E-07
  2.750E-02  5.75917E-08  7.82292E-15  2.79362E+02  1.81109E-07  1.0E-07
  3.000E-02  6.85389E-08  7.82158E-15  2.79314E+02  1.97589E-07  1.0E-07
  3.250E-02  8.04380E-08  7.82013E-15  2.79262E+02  2.14074E-07  1.0E-07
  3.500E-02  9.32891E-08  7.81856E-15  2.79206E+02  2.30564E-07  1.0E-07
  3.750E-02  1.07092E-07  7.81687E-15  2.79146E+02  2.47058E-07  1.0E-07
  4.000E-02  1.21847E-07  7.81507E-15  2.79081E+02  2.63558E-07  1.0E-07
  4.250E-02  1.37554E-07  7.81315E-15  2.79013E+02  2.80063E-07  1.0E-07
  4.500E-02  1.54213E-07  7.81112E-15  2.78940E+02  2.96574E-07  1.0E-07
  4.750E-02  1.71823E-07  7.80897E-15  2.78863E+02  3.13092E-07  1.0E-07
  5.000E-02  1.90386E-07  7.80671E-15  2.78783E+02  3.29616E-07  1.0E-07
  5.250E-02  2.09900E-07  7.80433E-15  2.78698E+02  3.46147E-07  1.0E-07
  5.500E-02  2.30367E-07  7.80184E-15  2.78609E+02  3.62686E-07  1.0E-07
  5.750E-02  2.51785E-07  7.79923E-15  2.78516E+02  3.79232E-07  1.0E-07
  6.000E-02  2.74156E-07  7.79652E-15  2.78419E+02  3.95787E-07  1.0E-07
  6.250E-02  2.97478E-07  7.79368E-15  2.78317E+02  4.12350E-07  1.0E-07
  6.500E-02  3.21752E-07  7.79074E-15  2.78212E+02  4.28921E-07  1.0E-07
  6.750E-02  3.46978E-07  7.78768E-15  2.78103E+02  4.45502E-07  1.0E-07
  7.000E-02  3.73156E-07  7.78450E-15  2.77990E+02  4.62092E-07  1.0E-07
  7.250E-02  4.00286E-07  7.78122E-15  2.77872E+02  4.78692E-07  1.0E-07
  7.500E-02  4.28368E-07  7.77782E-15  2.77751E+02  4.95303E-07  1.0E-07
  7.750E-02  4.57402E-07  7.77431E-15  2.77626E+02  5.11923E-07  1.0E-07
  8.000E-02  4.87388E-07  7.77069E-15  2.77496E+02  5.28555E-07  1.0E-07
  8.250E-02  5.18325E-07  7.76695E-15  2.77363E+02  5.45198E-07  1.0E-07
  8.500E-02  5.50215E-07  7.76311E-15  2.77226E+02  5.61852E-07  1.0E-07
  8.750E-02  5.83057E-07  7.75915E-15  2.77084E+02  5.78519E-07  1.0E-07
  9.000E-02  6.16850E-07  7.75509E-15  2.76939E+02  5.95197E-07  1.0E-07
  9.250E-02  6.51596E-07  7.75091E-15  2.76790E+02  6.11888E-07  1.0E-07
  9.500E-02  6.87293E-07  7.74662E-15  2.76637E+02  6.28592E-07  1.0E-07
  9.750E-02  7.23942E-07  7.74223E-15  2.76480E+02  6.45310E-07  1.0E-07
  1.000E-01  7.61543E-07  7.73772E-15  2.76319E+02  6.62040E-07  1.0E-07
  1.250E-01  1.18991E-06  7.68676E-15  2.74499E+02  8.30174E-07  1.0E-07
  1.500E-01  1.71347E-06  7.62536E-15  2.72307E+02  1.00004E-06  1.0E-07
  1.750E-01  2.33223E-06  7.55403E-15  2.69759E+02  1.17198E-06  1.0E-07
  2.000E-01  3.04617E-06  7.47333E-15  2.66877E+02  1.34631E-06  1.0E-07
  2.250E-01  3.85531E-06  7.38390E-15  2.63684E+02  1.52336E-06  1.0E-07
  2.500E-01  4.75964E-06  7.28640E-15  2.60202E+02  1.70343E-06  1.0E-07
  2.750E-01  5.75916E-06  7.18156E-15  2.56458E+02  1.88682E-06  1.0E-07
  3.000E-01  6.85388E-06  7.07009E-15  2.52477E+02  2.07382E-06  1.0E-07
  3.250E-01  8.04378E-06  6.95273E-15  2.48287E+02  2.26470E-06  1.0E-07
  3.500E-01  9.32888E-06  6.83024E-15  2.43912E+02  2.45972E-06  1.0E-07
  3.750E-01  1.07092E-05  6.70335E-15  2.39381E+02  2.65915E-06  1.0E-07
  4.000E-01  1.21846E-05  6.57276E-15  2.34718E+02  2.86320E-06  1.0E-07
  4.250E-01  1.37553E-05  6.43919E-15  2.29948E+02  3.07212E-06  1.0E-07
  4.500E-01  1.54212E-05  6.30328E-15  2.25094E+02  3.28611E-06  1.0E-07
  4.750E-01  1.71822E-05  6.16567E-15  2.20180E+02  3.50537E-06  1.0E-07
  5.000E-01  1.90385E-05  6.02694E-15  2.15226E+02  3.73010E-06  1.0E-07
  5.250E-01  2.09899E-05  5.88763E-15  2.10251E+02  3.96045E-06  1.0E-07
  5.500E-01  2.30365E-05  5.74825E-15  2.05274E+02  4.19661E-06  1.0E-07
  5.750E-01  2.51783E-05  5.60924E-15  2.00310E+02  4.43872E-06  1.0E-07
  6.000E-01  2.74153E-05  5.47101E-15  1.95373E+02  4.68693E-06  1.0E-07
  6.250E-01  2.97475E-05  5.33394E-15  1.90478E+02  4.94140E-06  1.0E-07
  6.500E-01  3.21749E-05  5.19833E-15  1.85636E+02  5.20214E-06  1.0E-07
  6.750E-01  3.46974E-05  5.06446E-15  1.80855E+02  5.46947E-06  1.0E-07
  7.000E-01  3.73152E-05  4.93259E-15  1.76146E+02  5.74335E-06  1.0E-07
  7.250E-01  4.00281E-05  4.80290E-15  1.71515E+02  6.02394E-06  1.0E-07
  7.500E-01  4.28362E-05  4.67558E-15  1.66968E+02  6.31133E-06  1.0E-07
  7.750E-01  4.57395E-05  4.55075E-15  1.62510E+02  6.60562E-06  1.0E-07
  8.000E-01  4.87380E-05  4.42853E-15  1.58146E+02  6.90686E-06  1.0E-07
  8.250E-01  5.18317E-05  4.30900E-15  1.53877E+02  7.21525E-06  1.0E-07
  8.500E-01  5.50205E-05  4.19222E-15  1.49707E+02  7.53080E-06  1.0E-07
  8.750E-01  5.83045E-05  4.07823E-15  1.45636E+02  7.85360E-06  1.0E-07
  9.000E-01  6.16838E-05  3.96706E-15  1.41666E+02  8.18373E-06  1.0E-07
  9.250E-01  6.51582E-05  3.85870E-15  1.37797E+02  8.52128E-06  1.0E-07
  9.500E-01  6.87277E-05  3.75317E-15  1.34028E+02  8.86633E-06  1.0E-07
  9.750E-01  7.23925E-05  3.65043E-15  1.30359E+02  9.21897E-06  1.0E-07
  1.000E+00  7.61524E-05  3.55046E-15  1.26789E+02  9.57928E-06  1.0E-07
  1.100E+00  9.21439E-05  3.17746E-15  1.13469E+02  1.10991E-05  1.0E-07
  1.200E+00  1.09658E-04  2.84494E-15  1.01595E+02  1.27493E-05  1.0E-07
  1.300E+00  1.28695E-04  2.54906E-15  9.10285E+01  1.45360E-05  1.0E-07
  1.400E+00  1.49255E-04  2.28587E-15  8.16300E+01  1.64662E-05  1.0E-07
  1.500E+00  1.71338E-04  2.05167E-15  7.32666E+01  1.85476E-05  1.0E-07
  1.600E+00  1.94942E-04  1.84311E-15  6.58186E+01  2.07879E-05  1.0E-07
  1.700E+00  2.20070E-04  1.65720E-15  5.91797E+01  2.31954E-05  1.0E-07
  1.800E+00  2.46720E-04  1.49134E-15  5.32569E+01  2.57785E-05  1.0E-07
  1.900E+00  2.74892E-04  1.34326E-15  4.79686E+01  2.85458E-05  1.0E-07
  2.000E+00  3.04586E-04  1.21094E-15  4.32435E+01  3.15059E-05  1.0E-07
  2.100E+00  3.35803E-04  1.09265E-15  3.90191E+01  3.46671E-05  1.0E-07
  2.200E+00  3.68542E-04  9.86823E-16  3.52401E+01  3.80379E-05  1.0E-07
  2.300E+00  4.02802E-04  8.92113E-16  3.18579E+01  4.16260E-05  1.0E-07
  2.400E+00  4.38585E-04  8.07307E-16  2.88295E+01  4.54394E-05  1.0E-07
  2.500E+00  4.75889E-04  7.31335E-16  2.61165E+01  4.94851E-05  1.0E-07
  2.600E+00  5.14715E-04  6.63245E-16  2.36849E+01  5.37699E-05  1.0E-07
  2.700E+00  5.55063E-04  6.02189E-16  2.15046E+01  5.83001E-05  1.0E-07
  2.800E+00  5.96931E-04  5.47413E-16  1.95485E+01  6.30813E-05  1.0E-07
  2.900E+00  6.40321E-04  4.98242E-16  1.77925E+01  6.81184E-05  1.0E-07
  3.000E+00  6.85233E-04  4.54077E-16  1.62154E+01  7.34156E-05  1.0E-07
  3.100E+00  7.31665E-04  4.14383E-16  1.47979E+01  7.89765E-05  1.0E-07
  3.200E+00  7.79618E-04  3.78681E-16  1.35229E+01  8.48040E-05  1.0E-07
  3.300E+00  8.29092E-04  3.46545E-16  1.23754E+01  9.09001E-05  1.0E-07
  3.400E+00  8.80086E-04  3.17597E-16  1.13416E+01  9.72664E-05  1.0E-07
  3.500E+00  9.32601E-04  2.91496E-16  1.04095E+01  1.03904E-04  1.0E-07
  3.600E+00  9.86636E-04  2.67941E-16  9.56833E+00  1.10812E-04  1.0E-07
  3.700E+00  1.04219E-03  2.46661E-16  8.80844E+00  1.17991E-04  1.0E-07
  3.800E+00  1.09927E-03  2.27418E-16  8.12125E+00  1.25440E-04  1.0E-07
  3.900E+00  1.15786E-03  2.09997E-16  7.49913E+00  1.33158E-04  1.0E-07
  4.000E+00  1.21797E-03  1.94207E-16  6.93526E+00  1.41143E-04  1.0E-07
  4.100E+00  1.27961E-03  1.79878E-16  6.42357E+00  1.49394E-04  1.0E-07
  4.200E+00  1.34276E-03  1.66859E-16  5.95865E+00  1.57908E-04  1.0E-07
  4.300E+00  1.40743E-03  1.55015E-16  5.53567E+00  1.66684E-04  1.0E-07
  4.400E+00  1.47362E-03  1.44224E-16  5.15034E+00  1.75720E-04  1.0E-07
  4.500E+00  1.54133E-03  1.34381E-16  4.79884E+00  1.85015E-04  1.0E-07
  4.600E+00  1.61056E-03  1.25389E-16  4.47773E+00  1.94566E-04  1.0E-07
  4.700E+00  1.68131E-03  1.17164E-16  4.18399E+00  2.04373E-04  1.0E-07
  4.800E+00  1.75357E-03  1.09628E-16  3.91488E+00  2.14433E-04  1.0E-07
  4.900E+00  1.82735E-03  1.02714E-16  3.66799E+00  2.24748E-04  1.0E-07
  5.000E+00  1.90265E-03  9.63621E-17  3.44115E+00  2.35315E-04  1.0E-07
  5.100E+00  1.97947E-03  9.05173E-17  3.23243E+00  2.46135E-04  1.0E-07
  5.200E+00  2.05780E-03  8.51314E-17  3.04010E+00  2.57208E-04  1.0E-07
  5.300E+00  2.13765E-03  8.01612E-17  2.86261E+00  2.68534E-04  1.0E-07
  5.400E+00  2.21902E-03  7.55680E-17  2.69858E+00  2.80115E-04  1.0E-07
  5.500E+00  2.30190E-03  7.13171E-17  2.54678E+00  2.91951E-04  1.0E-07
  5.600E+00  2.38630E-03  6.73774E-17  2.40609E+00  3.04043E-04  1.0E-07
  5.700E+00  2.47222E-03  6.37210E-17  2.27552E+00  3.16392E-04  1.0E-07
  5.800E+00  2.55965E-03  6.03229E-17  2.15417E+00  3.29002E-04  1.0E-07
  5.900E+00  2.64859E-03  5.71607E-17  2.04124E+00  3.41872E-04  1.0E-07
  6.000E+00  2.73905E-03  5.42140E-17  1.93602E+00  3.55005E-04  1.0E-07
  6.100E+00  2.83103E-03  5.14647E-17  1.83784E+00  3.68403E-04  1.0E-07
  6.200E+00  2.92452E-03  4.88963E-17  1.74612E+00  3.82067E-04  1.0E-07
  6.300E+00  3.01952E-03  4.64940E-17  1.66033E+00  3.96000E-04  1.0E-07
  6.400E+00  3.11604E-03  4.42445E-17  1.58000E+00  4.10203E-04  1.0E-07
  6.500E+00  3.21407E-03  4.21355E-17  1.50469E+00  4.24677E-04  1.0E-07
  6.600E+00  3.31362E-03  4.01562E-17  1.43400E+00  4.39425E-04  1.0E-07
  6.700E+00  3.41468E-03  3.82965E-17  1.36759E+00  4.54448E-04  1.0E-07
  6.800E+00  3.51725E-03  3.65475E-17  1.30513E+00  4.69746E-04  1.0E-07
  6.900E+00  3.62133E-03  3.49008E-17  1.24633E+00  4.85321E-04  1.0E-07
  7.000E+00  3.72692E-03  3.33491E-17  1.19092E+00  5.01174E-04  1.0E-07
  7.100E+00  3.83403E-03  3.18855E-17  1.13865E+00  5.17305E-04  1.0E-07
  7.200E+00  3.94265E-03  3.05037E-17  1.08931E+00  5.33714E-04  1.0E-07
  7.300E+00  4.05278E-03  2.91980E-17  1.04268E+00  5.50401E-04  1.0E-07
  7.400E+00  4.16442E-03  2.79633E-17  9.98588E-01  5.67367E-04  1.0E-07
  7.500E+00  4.27757E-03  2.67948E-17  9.56858E-01  5.84611E-04  1.0E-07
  7.600E+00  4.39223E-03  2.56880E-17  9.17334E-01  6.02131E-04  1.0E-07
  7.700E+00  4.50840E-03  2.46389E-17  8.79871E-01  6.19928E-04  1.0E-07
  7.800E+00  4.62608E-03  2.36438E-17  8.44337E-01  6.37998E-04  1.0E-07
  7.900E+00  4.74527E-03  2.26994E-17  8.10609E-01  6.56341E-04  1.0E-07
  8.000E+00  4.86597E-03  2.18023E-17  7.78575E-01  6.74955E-04  1.0E-07
  8.100E+00  4.98817E-03  2.09498E-17  7.48130E-01  6.93838E-04  1.0E-07
  8.200E+00  5.11188E-03  2.01391E-17  7.19179E-01  7.12987E-04  1.0E-07
  8.300E+00  5.23711E-03  1.93676E-17  6.91631E-01  7.32398E-04  1.0E-07
  8.400E+00  5.36383E-03  1.86332E-17  6.65403E-01  7.52070E-04  1.0E-07
  8.500E+00  5.49207E-03  1.79336E-17  6.40420E-01  7.71998E-04  1.0E-07
  8.600E+00  5.62181E-03  1.72668E-17  6.16608E-01  7.92180E-04  1.0E-07
  8.700E+00  5.75306E-03  1.66310E-17  5.93903E-01  8.12611E-04  1.0E-07
  8.800E+00  5.88581E-03  1.60244E-17  5.72241E-01  8.33287E-04  1.0E-07
  8.900E+00  6.02007E-03  1.54454E-17  5.51566E-01  8.54204E-04  1.0E-07
  9.000E+00  6.15583E-03  1.48925E-17  5.31822E-01  8.75357E-04  1.0E-07
  9.100E+00  6.29310E-03  1.43644E-17  5.12960E-01  8.96741E-04  1.0E-07
  9.200E+00  6.43187E-03  1.38595E-17  4.94933E-01  9.18352E-04  1.0E-07
  9.300E+00  6.57214E-03  1.33768E-17  4.77695E-01  9.40184E-04  1.0E-07
  9.400E+00  6.71392E-03  1.29151E-17  4.61207E-01  9.62232E-04  1.0E-07
  9.500E+00  6.85720E-03  1.24733E-17  4.45429E-01  9.84490E-04  1.0E-07
  9.600E+00  7.00198E-03  1.20503E-17  4.30324E-01  1.00695E-03  1.0E-07
  9.700E+00  7.14827E-03  1.16452E-17  4.15859E-01  1.02961E-03  1.0E-07
  9.800E+00  7.29605E-03  1.12572E-17  4.02001E-01  1.05247E-03  1.0E-07
  9.900E+00  7.44534E-03  1.08853E-17  3.88720E-01  1.07551E-03  1.0E-07
  1.000E+01  7.59612E-03  1.05287E-17  3.75987E-01  1.09873E-03  1.0E-07
  1.025E+01  7.97965E-03  9.69968E-18  3.46382E-01  1.15753E-03  1.0E-07
  1.050E+01  8.37255E-03  8.95142E-18  3.19661E-01  1.21732E-03  1.0E-07
  1.075E+01  8.77480E-03  8.27470E-18  2.95495E-01  1.27799E-03  1.0E-07
  1.100E+01  9.18641E-03  7.66152E-18  2.73598E-01  1.33944E-03  1.0E-07
  1.125E+01  9.60736E-03  7.10486E-18  2.53719E-01  1.40155E-03  1.0E-07
  1.150E+01  1.00376E-02  6.59863E-18  2.35641E-01  1.46424E-03  1.0E-07
  1.175E+01  1.04773E-02  6.13744E-18  2.19172E-01  1.52739E-03  1.0E-07
  1.200E+01  1.09262E-02  5.71658E-18  2.04143E-01  1.59090E-03  1.0E-07
  1.225E+01  1.13844E-02  5.33188E-18  1.90405E-01  1.65467E-03  1.0E-07
  1.250E+01  1.18520E-02  4.97966E-18  1.77827E-01  1.71860E-03  1.0E-07
  1.275E+01  1.23288E-02  4.65668E-18  1.66293E-01  1.78261E-03  1.0E-07
  1.300E+01  1.28150E-02  4.36005E-18  1.55700E-01  1.84661E-03  1.0E-07
  1.325E+01  1.33104E-02  4.08721E-18  1.45957E-01  1.91051E-03  1.0E-07
  1.350E+01  1.38150E-02  3.83588E-18  1.36982E-01  1.97422E-03  1.0E-07
  1.375E+01  1.43290E-02  3.60403E-18  1.28702E-01  2.03768E-03  1.0E-07
  1.400E+01  1.48521E-02  3.38984E-18  1.21053E-01  2.10080E-03  1.0E-07
  1.425E+01  1.53845E-02  3.19171E-18  1.13978E-01  2.16352E-03  1.0E-07
  1.450E+01  1.59262E-02  3.00818E-18  1.07424E-01  2.22577E-03  1.0E-07
  1.475E+01  1.64770E-02  2.83795E-18  1.01345E-01  2.28747E-03  1.0E-07
