 #
 # Subroutine ELSEPA. Elastic scattering of electrons and positrons
 #                    by neutral atoms and positive ions
 #
 # Projectile: electron
 # Kinetic energy = 6.00000E+03 eV = 2.20496E+02 a.u.
 #
 # Element: Ag,  Z =  47,  atomic weight = 1.07868E+02 g/mol
 #
 # Nuclear model: Fermi distribution
 #                Average radius = 5.09348E-13 cm
 #                Skin thickness = 5.46000E-14 cm
 #
 # Number of electrons = 47
 #
 # Electron density: Read from file ./database/z_047.den                                                                                                    
 #                   Number of data points =  813
 #                   Volume integral = 4.70000E+01
 #
 # Furness-McCarthy exchange potential
 #
 # No absorption potential
 #
 # No correlation-polarization potential
 #
 # Integrated cross sections:
 # Total elastic cross section = 8.56349E-17 cm**2 = 3.05808E+00 a0**2
 # 1st transport cross section = 4.82394E-18 cm**2 = 1.72266E-01 a0**2
 # 2nd transport cross section = 8.25152E-18 cm**2 = 2.94667E-01 a0**2
 #
 #
 # Differential cross section:                       MU=(1-COS(THETA))/2
 #
 #  THETA        MU          DCS          DCS        Sherman      error
 #  (deg)                 (cm**2/sr)   (a0**2/sr)    function
 #----------------------------------------------------------------------
  0.000E+00  0.00000E+00  4.61547E-15  1.64821E+02  0.00000E+00  1.0E-07
  1.000E-04  7.61557E-13  4.61547E-15  1.64821E+02  6.95596E-10  1.0E-07
  1.250E-04  1.18994E-12  4.61547E-15  1.64821E+02  8.69495E-10  1.0E-07
  1.500E-04  1.71346E-12  4.61547E-15  1.64821E+02  1.04339E-09  1.0E-07
  1.750E-04  2.33225E-12  4.61547E-15  1.64821E+02  1.21729E-09  1.0E-07
  2.000E-04  3.04617E-12  4.61547E-15  1.64821E+02  1.39119E-09  1.0E-07
  2.250E-04  3.85530E-12  4.61547E-15  1.64821E+02  1.56509E-09  1.0E-07
  2.500E-04  4.75964E-12  4.61547E-15  1.64821E+02  1.73899E-09  1.0E-07
  2.750E-04  5.75917E-12  4.61547E-15  1.64821E+02  1.91289E-09  1.0E-07
  3.000E-04  6.85391E-12  4.61547E-15  1.64821E+02  2.08679E-09  1.0E-07
  3.250E-04  8.04379E-12  4.61547E-15  1.64821E+02  2.26069E-09  1.0E-07
  3.500E-04  9.32893E-12  4.61547E-15  1.64821E+02  2.43459E-09  1.0E-07
  3.750E-04  1.07092E-11  4.61547E-15  1.64821E+02  2.60849E-09  1.0E-07
  4.000E-04  1.21847E-11  4.61547E-15  1.64821E+02  2.78238E-09  1.0E-07
  4.250E-04  1.37554E-11  4.61547E-15  1.64821E+02  2.95628E-09  1.0E-07
  4.500E-04  1.54213E-11  4.61547E-15  1.64821E+02  3.13018E-09  1.0E-07
  4.750E-04  1.71823E-11  4.61547E-15  1.64821E+02  3.30408E-09  1.0E-07
  5.000E-04  1.90386E-11  4.61547E-15  1.64821E+02  3.47798E-09  1.0E-07
  5.250E-04  2.09900E-11  4.61547E-15  1.64821E+02  3.65188E-09  1.0E-07
  5.500E-04  2.30367E-11  4.61547E-15  1.64821E+02  3.82578E-09  1.0E-07
  5.750E-04  2.51785E-11  4.61547E-15  1.64821E+02  3.99968E-09  1.0E-07
  6.000E-04  2.74156E-11  4.61547E-15  1.64821E+02  4.17358E-09  1.0E-07
  6.250E-04  2.97478E-11  4.61547E-15  1.64821E+02  4.34748E-09  1.0E-07
  6.500E-04  3.21752E-11  4.61547E-15  1.64821E+02  4.52137E-09  1.0E-07
  6.750E-04  3.46979E-11  4.61547E-15  1.64821E+02  4.69527E-09  1.0E-07
  7.000E-04  3.73157E-11  4.61547E-15  1.64821E+02  4.86917E-09  1.0E-07
  7.250E-04  4.00286E-11  4.61547E-15  1.64821E+02  5.04307E-09  1.0E-07
  7.500E-04  4.28368E-11  4.61547E-15  1.64821E+02  5.21697E-09  1.0E-07
  7.750E-04  4.57402E-11  4.61547E-15  1.64821E+02  5.39087E-09  1.0E-07
  8.000E-04  4.87388E-11  4.61547E-15  1.64821E+02  5.56477E-09  1.0E-07
  8.250E-04  5.18325E-11  4.61547E-15  1.64821E+02  5.73867E-09  1.0E-07
  8.500E-04  5.50215E-11  4.61547E-15  1.64821E+02  5.91257E-09  1.0E-07
  8.750E-04  5.83057E-11  4.61547E-15  1.64821E+02  6.08647E-09  1.0E-07
  9.000E-04  6.16850E-11  4.61547E-15  1.64821E+02  6.26036E-09  1.0E-07
  9.250E-04  6.51595E-11  4.61547E-15  1.64821E+02  6.43426E-09  1.0E-07
  9.500E-04  6.87293E-11  4.61547E-15  1.64821E+02  6.60816E-09  1.0E-07
  9.750E-04  7.23943E-11  4.61547E-15  1.64821E+02  6.78206E-09  1.0E-07
  1.000E-03  7.61544E-11  4.61547E-15  1.64821E+02  6.95596E-09  1.0E-07
  1.250E-03  1.18991E-10  4.61547E-15  1.64821E+02  8.69495E-09  1.0E-07
  1.500E-03  1.71347E-10  4.61547E-15  1.64821E+02  1.04339E-08  1.0E-07
  1.750E-03  2.33223E-10  4.61547E-15  1.64821E+02  1.21729E-08  1.0E-07
  2.000E-03  3.04617E-10  4.61547E-15  1.64821E+02  1.39119E-08  1.0E-07
  2.250E-03  3.85531E-10  4.61547E-15  1.64821E+02  1.56509E-08  1.0E-07
  2.500E-03  4.75965E-10  4.61547E-15  1.64821E+02  1.73899E-08  1.0E-07
  2.750E-03  5.75917E-10  4.61547E-15  1.64821E+02  1.91289E-08  1.0E-07
  3.000E-03  6.85389E-10  4.61546E-15  1.64821E+02  2.08679E-08  1.0E-07
  3.250E-03  8.04380E-10  4.61546E-15  1.64821E+02  2.26069E-08  1.0E-07
  3.500E-03  9.32891E-10  4.61546E-15  1.64821E+02  2.43459E-08  1.0E-07
  3.750E-03  1.07092E-09  4.61546E-15  1.64821E+02  2.60849E-08  1.0E-07
  4.000E-03  1.21847E-09  4.61546E-15  1.64821E+02  2.78239E-08  1.0E-07
  4.250E-03  1.37554E-09  4.61546E-15  1.64821E+02  2.95629E-08  1.0E-07
  4.500E-03  1.54213E-09  4.61546E-15  1.64821E+02  3.13019E-08  1.0E-07
  4.750E-03  1.71823E-09  4.61545E-15  1.64821E+02  3.30409E-08  1.0E-07
  5.000E-03  1.90386E-09  4.61545E-15  1.64821E+02  3.47798E-08  1.0E-07
  5.250E-03  2.09900E-09  4.61545E-15  1.64821E+02  3.65188E-08  1.0E-07
  5.500E-03  2.30367E-09  4.61545E-15  1.64821E+02  3.82578E-08  1.0E-07
  5.750E-03  2.51785E-09  4.61545E-15  1.64821E+02  3.99968E-08  1.0E-07
  6.000E-03  2.74156E-09  4.61544E-15  1.64821E+02  4.17358E-08  1.0E-07
  6.250E-03  2.97478E-09  4.61544E-15  1.64820E+02  4.34748E-08  1.0E-07
  6.500E-03  3.21752E-09  4.61544E-15  1.64820E+02  4.52138E-08  1.0E-07
  6.750E-03  3.46978E-09  4.61544E-15  1.64820E+02  4.69528E-08  1.0E-07
  7.000E-03  3.73156E-09  4.61544E-15  1.64820E+02  4.86919E-08  1.0E-07
  7.250E-03  4.00286E-09  4.61543E-15  1.64820E+02  5.04309E-08  1.0E-07
  7.500E-03  4.28368E-09  4.61543E-15  1.64820E+02  5.21699E-08  1.0E-07
  7.750E-03  4.57402E-09  4.61543E-15  1.64820E+02  5.39089E-08  1.0E-07
  8.000E-03  4.87388E-09  4.61542E-15  1.64820E+02  5.56479E-08  1.0E-07
  8.250E-03  5.18326E-09  4.61542E-15  1.64820E+02  5.73869E-08  1.0E-07
  8.500E-03  5.50215E-09  4.61542E-15  1.64820E+02  5.91259E-08  1.0E-07
  8.750E-03  5.83057E-09  4.61542E-15  1.64819E+02  6.08649E-08  1.0E-07
  9.000E-03  6.16850E-09  4.61541E-15  1.64819E+02  6.26039E-08  1.0E-07
  9.250E-03  6.51596E-09  4.61541E-15  1.64819E+02  6.43429E-08  1.0E-07
  9.500E-03  6.87293E-09  4.61541E-15  1.64819E+02  6.60819E-08  1.0E-07
  9.750E-03  7.23942E-09  4.61540E-15  1.64819E+02  6.78210E-08  1.0E-07
  1.000E-02  7.61544E-09  4.61540E-15  1.64819E+02  6.95600E-08  1.0E-07
  1.250E-02  1.18991E-08  4.61536E-15  1.64817E+02  8.69502E-08  1.0E-07
  1.500E-02  1.71347E-08  4.61531E-15  1.64816E+02  1.04341E-07  1.0E-07
  1.750E-02  2.33223E-08  4.61525E-15  1.64814E+02  1.21731E-07  1.0E-07
  2.000E-02  3.04617E-08  4.61518E-15  1.64811E+02  1.39122E-07  1.0E-07
  2.250E-02  3.85531E-08  4.61510E-15  1.64808E+02  1.56513E-07  1.0E-07
  2.500E-02  4.75965E-08  4.61502E-15  1.64805E+02  1.73905E-07  1.0E-07
  2.750E-02  5.75917E-08  4.61492E-15  1.64802E+02  1.91297E-07  1.0E-07
  3.000E-02  6.85389E-08  4.61482E-15  1.64798E+02  2.08689E-07  1.0E-07
  3.250E-02  8.04380E-08  4.61471E-15  1.64794E+02  2.26082E-07  1.0E-07
  3.500E-02  9.32891E-08  4.61459E-15  1.64790E+02  2.43475E-07  1.0E-07
  3.750E-02  1.07092E-07  4.61446E-15  1.64785E+02  2.60868E-07  1.0E-07
  4.000E-02  1.21847E-07  4.61432E-15  1.64780E+02  2.78263E-07  1.0E-07
  4.250E-02  1.37554E-07  4.61417E-15  1.64775E+02  2.95657E-07  1.0E-07
  4.500E-02  1.54213E-07  4.61401E-15  1.64769E+02  3.13053E-07  1.0E-07
  4.750E-02  1.71823E-07  4.61384E-15  1.64763E+02  3.30449E-07  1.0E-07
  5.000E-02  1.90386E-07  4.61367E-15  1.64757E+02  3.47845E-07  1.0E-07
  5.250E-02  2.09900E-07  4.61348E-15  1.64750E+02  3.65243E-07  1.0E-07
  5.500E-02  2.30367E-07  4.61329E-15  1.64743E+02  3.82641E-07  1.0E-07
  5.750E-02  2.51785E-07  4.61308E-15  1.64736E+02  4.00040E-07  1.0E-07
  6.000E-02  2.74156E-07  4.61287E-15  1.64729E+02  4.17439E-07  1.0E-07
  6.250E-02  2.97478E-07  4.61265E-15  1.64721E+02  4.34840E-07  1.0E-07
  6.500E-02  3.21752E-07  4.61242E-15  1.64713E+02  4.52241E-07  1.0E-07
  6.750E-02  3.46978E-07  4.61218E-15  1.64704E+02  4.69644E-07  1.0E-07
  7.000E-02  3.73156E-07  4.61193E-15  1.64695E+02  4.87047E-07  1.0E-07
  7.250E-02  4.00286E-07  4.61168E-15  1.64686E+02  5.04451E-07  1.0E-07
  7.500E-02  4.28368E-07  4.61141E-15  1.64676E+02  5.21857E-07  1.0E-07
  7.750E-02  4.57402E-07  4.61114E-15  1.64667E+02  5.39263E-07  1.0E-07
  8.000E-02  4.87388E-07  4.61085E-15  1.64657E+02  5.56671E-07  1.0E-07
  8.250E-02  5.18325E-07  4.61056E-15  1.64646E+02  5.74079E-07  1.0E-07
  8.500E-02  5.50215E-07  4.61026E-15  1.64635E+02  5.91489E-07  1.0E-07
  8.750E-02  5.83057E-07  4.60995E-15  1.64624E+02  6.08900E-07  1.0E-07
  9.000E-02  6.16850E-07  4.60963E-15  1.64613E+02  6.26312E-07  1.0E-07
  9.250E-02  6.51596E-07  4.60930E-15  1.64601E+02  6.43726E-07  1.0E-07
  9.500E-02  6.87293E-07  4.60896E-15  1.64589E+02  6.61141E-07  1.0E-07
  9.750E-02  7.23942E-07  4.60861E-15  1.64577E+02  6.78557E-07  1.0E-07
  1.000E-01  7.61543E-07  4.60826E-15  1.64564E+02  6.95974E-07  1.0E-07
  1.250E-01  1.18991E-06  4.60421E-15  1.64419E+02  8.70234E-07  1.0E-07
  1.500E-01  1.71347E-06  4.59927E-15  1.64243E+02  1.04467E-06  1.0E-07
  1.750E-01  2.33223E-06  4.59345E-15  1.64035E+02  1.21932E-06  1.0E-07
  2.000E-01  3.04617E-06  4.58674E-15  1.63796E+02  1.39421E-06  1.0E-07
  2.250E-01  3.85531E-06  4.57917E-15  1.63525E+02  1.56939E-06  1.0E-07
  2.500E-01  4.75964E-06  4.57073E-15  1.63224E+02  1.74488E-06  1.0E-07
  2.750E-01  5.75916E-06  4.56143E-15  1.62892E+02  1.92073E-06  1.0E-07
  3.000E-01  6.85388E-06  4.55129E-15  1.62529E+02  2.09695E-06  1.0E-07
  3.250E-01  8.04378E-06  4.54031E-15  1.62137E+02  2.27360E-06  1.0E-07
  3.500E-01  9.32888E-06  4.52851E-15  1.61716E+02  2.45069E-06  1.0E-07
  3.750E-01  1.07092E-05  4.51590E-15  1.61266E+02  2.62828E-06  1.0E-07
  4.000E-01  1.21846E-05  4.50248E-15  1.60787E+02  2.80638E-06  1.0E-07
  4.250E-01  1.37553E-05  4.48828E-15  1.60280E+02  2.98502E-06  1.0E-07
  4.500E-01  1.54212E-05  4.47331E-15  1.59745E+02  3.16425E-06  1.0E-07
  4.750E-01  1.71822E-05  4.45759E-15  1.59183E+02  3.34410E-06  1.0E-07
  5.000E-01  1.90385E-05  4.44112E-15  1.58595E+02  3.52458E-06  1.0E-07
  5.250E-01  2.09899E-05  4.42393E-15  1.57981E+02  3.70574E-06  1.0E-07
  5.500E-01  2.30365E-05  4.40602E-15  1.57342E+02  3.88761E-06  1.0E-07
  5.750E-01  2.51783E-05  4.38743E-15  1.56678E+02  4.07021E-06  1.0E-07
  6.000E-01  2.74153E-05  4.36816E-15  1.55990E+02  4.25357E-06  1.0E-07
  6.250E-01  2.97475E-05  4.34824E-15  1.55278E+02  4.43773E-06  1.0E-07
  6.500E-01  3.21749E-05  4.32768E-15  1.54544E+02  4.62270E-06  1.0E-07
  6.750E-01  3.46974E-05  4.30650E-15  1.53788E+02  4.80852E-06  1.0E-07
  7.000E-01  3.73152E-05  4.28472E-15  1.53010E+02  4.99521E-06  1.0E-07
  7.250E-01  4.00281E-05  4.26236E-15  1.52212E+02  5.18280E-06  1.0E-07
  7.500E-01  4.28362E-05  4.23944E-15  1.51393E+02  5.37132E-06  1.0E-07
  7.750E-01  4.57395E-05  4.21597E-15  1.50555E+02  5.56079E-06  1.0E-07
  8.000E-01  4.87380E-05  4.19199E-15  1.49699E+02  5.75123E-06  1.0E-07
  8.250E-01  5.18317E-05  4.16751E-15  1.48824E+02  5.94266E-06  1.0E-07
  8.500E-01  5.50205E-05  4.14254E-15  1.47933E+02  6.13512E-06  1.0E-07
  8.750E-01  5.83045E-05  4.11712E-15  1.47025E+02  6.32861E-06  1.0E-07
  9.000E-01  6.16838E-05  4.09126E-15  1.46101E+02  6.52317E-06  1.0E-07
  9.250E-01  6.51582E-05  4.06497E-15  1.45163E+02  6.71881E-06  1.0E-07
  9.500E-01  6.87277E-05  4.03829E-15  1.44210E+02  6.91555E-06  1.0E-07
  9.750E-01  7.23925E-05  4.01123E-15  1.43244E+02  7.11341E-06  1.0E-07
  1.000E+00  7.61524E-05  3.98381E-15  1.42264E+02  7.31242E-06  1.0E-07
  1.100E+00  9.21439E-05  3.87093E-15  1.38233E+02  8.12017E-06  1.0E-07
  1.200E+00  1.09658E-04  3.75388E-15  1.34054E+02  8.94740E-06  1.0E-07
  1.300E+00  1.28695E-04  3.63384E-15  1.29767E+02  9.79492E-06  1.0E-07
  1.400E+00  1.49255E-04  3.51192E-15  1.25413E+02  1.06633E-05  1.0E-07
  1.500E+00  1.71338E-04  3.38913E-15  1.21028E+02  1.15530E-05  1.0E-07
  1.600E+00  1.94942E-04  3.26635E-15  1.16643E+02  1.24642E-05  1.0E-07
  1.700E+00  2.20070E-04  3.14439E-15  1.12288E+02  1.33968E-05  1.0E-07
  1.800E+00  2.46720E-04  3.02391E-15  1.07986E+02  1.43509E-05  1.0E-07
  1.900E+00  2.74892E-04  2.90550E-15  1.03757E+02  1.53259E-05  1.0E-07
  2.000E+00  3.04586E-04  2.78962E-15  9.96190E+01  1.63216E-05  1.0E-07
  2.100E+00  3.35803E-04  2.67664E-15  9.55845E+01  1.73374E-05  1.0E-07
  2.200E+00  3.68542E-04  2.56686E-15  9.16642E+01  1.83724E-05  1.0E-07
  2.300E+00  4.02802E-04  2.46049E-15  8.78656E+01  1.94259E-05  1.0E-07
  2.400E+00  4.38585E-04  2.35767E-15  8.41939E+01  2.04970E-05  1.0E-07
  2.500E+00  4.75889E-04  2.25850E-15  8.06526E+01  2.15845E-05  1.0E-07
  2.600E+00  5.14715E-04  2.16302E-15  7.72429E+01  2.26875E-05  1.0E-07
  2.700E+00  5.55063E-04  2.07123E-15  7.39651E+01  2.38046E-05  1.0E-07
  2.800E+00  5.96931E-04  1.98311E-15  7.08180E+01  2.49347E-05  1.0E-07
  2.900E+00  6.40321E-04  1.89858E-15  6.77996E+01  2.60764E-05  1.0E-07
  3.000E+00  6.85233E-04  1.81758E-15  6.49071E+01  2.72282E-05  1.0E-07
  3.100E+00  7.31665E-04  1.74002E-15  6.21373E+01  2.83887E-05  1.0E-07
  3.200E+00  7.79618E-04  1.66579E-15  5.94865E+01  2.95562E-05  1.0E-07
  3.300E+00  8.29092E-04  1.59478E-15  5.69506E+01  3.07292E-05  1.0E-07
  3.400E+00  8.80086E-04  1.52687E-15  5.45256E+01  3.19058E-05  1.0E-07
  3.500E+00  9.32601E-04  1.46195E-15  5.22071E+01  3.30843E-05  1.0E-07
  3.600E+00  9.86636E-04  1.39989E-15  4.99909E+01  3.42627E-05  1.0E-07
  3.700E+00  1.04219E-03  1.34057E-15  4.78728E+01  3.54389E-05  1.0E-07
  3.800E+00  1.09927E-03  1.28389E-15  4.58485E+01  3.66109E-05  1.0E-07
  3.900E+00  1.15786E-03  1.22972E-15  4.39140E+01  3.77764E-05  1.0E-07
  4.000E+00  1.21797E-03  1.17795E-15  4.20654E+01  3.89329E-05  1.0E-07
  4.100E+00  1.27961E-03  1.12848E-15  4.02986E+01  4.00781E-05  1.0E-07
  4.200E+00  1.34276E-03  1.08120E-15  3.86102E+01  4.12092E-05  1.0E-07
  4.300E+00  1.40743E-03  1.03601E-15  3.69965E+01  4.23236E-05  1.0E-07
  4.400E+00  1.47362E-03  9.92817E-16  3.54541E+01  4.34182E-05  1.0E-07
  4.500E+00  1.54133E-03  9.51532E-16  3.39798E+01  4.44901E-05  1.0E-07
  4.600E+00  1.61056E-03  9.12068E-16  3.25705E+01  4.55359E-05  1.0E-07
  4.700E+00  1.68131E-03  8.74340E-16  3.12233E+01  4.65524E-05  1.0E-07
  4.800E+00  1.75357E-03  8.38271E-16  2.99352E+01  4.75360E-05  1.0E-07
  4.900E+00  1.82735E-03  8.03784E-16  2.87036E+01  4.84830E-05  1.0E-07
  5.000E+00  1.90265E-03  7.70808E-16  2.75261E+01  4.93894E-05  1.0E-07
  5.100E+00  1.97947E-03  7.39276E-16  2.64000E+01  5.02513E-05  1.0E-07
  5.200E+00  2.05780E-03  7.09121E-16  2.53232E+01  5.10644E-05  1.0E-07
  5.300E+00  2.13765E-03  6.80283E-16  2.42934E+01  5.18243E-05  1.0E-07
  5.400E+00  2.21902E-03  6.52703E-16  2.33084E+01  5.25265E-05  1.0E-07
  5.500E+00  2.30190E-03  6.26324E-16  2.23664E+01  5.31661E-05  1.0E-07
  5.600E+00  2.38630E-03  6.01093E-16  2.14654E+01  5.37383E-05  1.0E-07
  5.700E+00  2.47222E-03  5.76959E-16  2.06036E+01  5.42379E-05  1.0E-07
  5.800E+00  2.55965E-03  5.53873E-16  1.97792E+01  5.46597E-05  1.0E-07
  5.900E+00  2.64859E-03  5.31789E-16  1.89905E+01  5.49982E-05  1.0E-07
  6.000E+00  2.73905E-03  5.10664E-16  1.82361E+01  5.52477E-05  1.0E-07
  6.100E+00  2.83103E-03  4.90454E-16  1.75144E+01  5.54026E-05  1.0E-07
  6.200E+00  2.92452E-03  4.71119E-16  1.68240E+01  5.54569E-05  1.0E-07
  6.300E+00  3.01952E-03  4.52622E-16  1.61634E+01  5.54044E-05  1.0E-07
  6.400E+00  3.11604E-03  4.34924E-16  1.55314E+01  5.52391E-05  1.0E-07
  6.500E+00  3.21407E-03  4.17992E-16  1.49268E+01  5.49544E-05  1.0E-07
  6.600E+00  3.31362E-03  4.01791E-16  1.43482E+01  5.45441E-05  1.0E-07
  6.700E+00  3.41468E-03  3.86289E-16  1.37946E+01  5.40014E-05  1.0E-07
  6.800E+00  3.51725E-03  3.71457E-16  1.32650E+01  5.33198E-05  1.0E-07
  6.900E+00  3.62133E-03  3.57263E-16  1.27581E+01  5.24925E-05  1.0E-07
  7.000E+00  3.72692E-03  3.43681E-16  1.22731E+01  5.15125E-05  1.0E-07
  7.100E+00  3.83403E-03  3.30684E-16  1.18089E+01  5.03731E-05  1.0E-07
  7.200E+00  3.94265E-03  3.18245E-16  1.13647E+01  4.90674E-05  1.0E-07
  7.300E+00  4.05278E-03  3.06341E-16  1.09396E+01  4.75883E-05  1.0E-07
  7.400E+00  4.16442E-03  2.94947E-16  1.05328E+01  4.59290E-05  1.0E-07
  7.500E+00  4.27757E-03  2.84042E-16  1.01433E+01  4.40825E-05  1.0E-07
  7.600E+00  4.39223E-03  2.73604E-16  9.77057E+00  4.20418E-05  1.0E-07
  7.700E+00  4.50840E-03  2.63612E-16  9.41375E+00  3.98003E-05  1.0E-07
  7.800E+00  4.62608E-03  2.54046E-16  9.07216E+00  3.73510E-05  1.0E-07
  7.900E+00  4.74527E-03  2.44889E-16  8.74513E+00  3.46873E-05  1.0E-07
  8.000E+00  4.86597E-03  2.36121E-16  8.43202E+00  3.18026E-05  1.0E-07
  8.100E+00  4.98817E-03  2.27725E-16  8.13221E+00  2.86905E-05  1.0E-07
  8.200E+00  5.11188E-03  2.19686E-16  7.84512E+00  2.53448E-05  1.0E-07
  8.300E+00  5.23711E-03  2.11986E-16  7.57017E+00  2.17594E-05  1.0E-07
  8.400E+00  5.36383E-03  2.04612E-16  7.30684E+00  1.79284E-05  1.0E-07
  8.500E+00  5.49207E-03  1.97549E-16  7.05460E+00  1.38461E-05  1.0E-07
  8.600E+00  5.62181E-03  1.90782E-16  6.81296E+00  9.50708E-06  1.0E-07
  8.700E+00  5.75306E-03  1.84300E-16  6.58146E+00  4.90628E-06  1.0E-07
  8.800E+00  5.88581E-03  1.78088E-16  6.35963E+00  0.00000E+00  1.0E-07
  8.900E+00  6.02007E-03  1.72135E-16  6.14705E+00 -5.09992E-06  1.0E-07
  9.000E+00  6.15583E-03  1.66430E-16  5.94331E+00 -1.05141E-05  1.0E-07
  9.100E+00  6.29310E-03  1.60961E-16  5.74801E+00 -1.62077E-05  1.0E-07
  9.200E+00  6.43187E-03  1.55717E-16  5.56077E+00 -2.21841E-05  1.0E-07
  9.300E+00  6.57214E-03  1.50690E-16  5.38124E+00 -2.84467E-05  1.0E-07
  9.400E+00  6.71392E-03  1.45869E-16  5.20907E+00 -3.49982E-05  1.0E-07
  9.500E+00  6.85720E-03  1.41244E-16  5.04393E+00 -4.18409E-05  1.0E-07
  9.600E+00  7.00198E-03  1.36808E-16  4.88551E+00 -4.89770E-05  1.0E-07
  9.700E+00  7.14827E-03  1.32552E-16  4.73350E+00 -5.64079E-05  1.0E-07
  9.800E+00  7.29605E-03  1.28467E-16  4.58763E+00 -6.41350E-05  1.0E-07
  9.900E+00  7.44534E-03  1.24546E-16  4.44761E+00 -7.21589E-05  1.0E-07
  1.000E+01  7.59612E-03  1.20781E-16  4.31318E+00 -8.04800E-05  1.0E-07
  1.025E+01  7.97965E-03  1.12010E-16  3.99996E+00 -1.02582E-04  1.0E-07
  1.050E+01  8.37255E-03  1.04074E-16  3.71656E+00 -1.26526E-04  1.0E-07
  1.075E+01  8.77480E-03  9.68828E-17  3.45975E+00 -1.52286E-04  1.0E-07
  1.100E+01  9.18641E-03  9.03560E-17  3.22667E+00 -1.79817E-04  1.0E-07
  1.125E+01  9.60736E-03  8.44224E-17  3.01478E+00 -2.09060E-04  1.0E-07
  1.150E+01  1.00376E-02  7.90186E-17  2.82181E+00 -2.39947E-04  1.0E-07
  1.175E+01  1.04773E-02  7.40882E-17  2.64574E+00 -2.72395E-04  1.0E-07
  1.200E+01  1.09262E-02  6.95810E-17  2.48478E+00 -3.06314E-04  1.0E-07
  1.225E+01  1.13844E-02  6.54528E-17  2.33736E+00 -3.41605E-04  1.0E-07
  1.250E+01  1.18520E-02  6.16639E-17  2.20206E+00 -3.78164E-04  1.0E-07
  1.275E+01  1.23288E-02  5.81794E-17  2.07763E+00 -4.15882E-04  1.0E-07
  1.300E+01  1.28150E-02  5.49683E-17  1.96295E+00 -4.54648E-04  1.0E-07
  1.325E+01  1.33104E-02  5.20029E-17  1.85706E+00 -4.94349E-04  1.0E-07
  1.350E+01  1.38150E-02  4.92588E-17  1.75906E+00 -5.34872E-04  1.0E-07
  1.375E+01  1.43290E-02  4.67143E-17  1.66820E+00 -5.76104E-04  1.0E-07
  1.400E+01  1.48521E-02  4.43502E-17  1.58378E+00 -6.17934E-04  1.0E-07
  1.425E+01  1.53845E-02  4.21495E-17  1.50518E+00 -6.60250E-04  1.0E-07
  1.450E+01  1.59262E-02  4.00968E-17  1.43188E+00 -7.02945E-04  1.0E-07
  1.475E+01  1.64770E-02  3.81789E-17  1.36339E+00 -7.45912E-04  1.0E-07
