 #
 # Subroutine ELSEPA. Elastic scattering of electrons and positrons
 #                    by neutral atoms and positive ions
 #
 # Projectile: electron
 # Kinetic energy = 2.00000E+02 eV = 7.34986E+00 a.u.
 #
 # Element: Ag,  Z =  47,  atomic weight = 1.07868E+02 g/mol
 #
 # Nuclear model: Fermi distribution
 #                Average radius = 5.09348E-13 cm
 #                Skin thickness = 5.46000E-14 cm
 #
 # Number of electrons = 47
 #
 # Electron density: Read from file ./database/z_047.den                                                                                                    
 #                   Number of data points =  813
 #                   Volume integral = 4.70000E+01
 #
 # Furness-McCarthy exchange potential
 #
 # No absorption potential
 #
 # No correlation-polarization potential
 #
 # Integrated cross sections:
 # Total elastic cross section = 4.71450E-16 cm**2 = 1.68358E+01 a0**2
 # 1st transport cross section = 1.80801E-16 cm**2 = 6.45654E+00 a0**2
 # 2nd transport cross section = 2.24719E-16 cm**2 = 8.02486E+00 a0**2
 #
 #
 # Differential cross section:                       MU=(1-COS(THETA))/2
 #
 #  THETA        MU          DCS          DCS        Sherman      error
 #  (deg)                 (cm**2/sr)   (a0**2/sr)    function
 #----------------------------------------------------------------------
  0.000E+00  0.00000E+00  1.34226E-15  4.79331E+01  0.00000E+00  1.0E-07
  1.000E-04  7.61557E-13  1.34226E-15  4.79331E+01  1.00968E-08  1.0E-07
  1.250E-04  1.18994E-12  1.34226E-15  4.79331E+01  1.26210E-08  1.0E-07
  1.500E-04  1.71346E-12  1.34226E-15  4.79331E+01  1.51452E-08  1.0E-07
  1.750E-04  2.33225E-12  1.34226E-15  4.79331E+01  1.76694E-08  1.0E-07
  2.000E-04  3.04617E-12  1.34226E-15  4.79331E+01  2.01936E-08  1.0E-07
  2.250E-04  3.85530E-12  1.34226E-15  4.79331E+01  2.27178E-08  1.0E-07
  2.500E-04  4.75964E-12  1.34226E-15  4.79331E+01  2.52421E-08  1.0E-07
  2.750E-04  5.75917E-12  1.34226E-15  4.79331E+01  2.77663E-08  1.0E-07
  3.000E-04  6.85391E-12  1.34226E-15  4.79331E+01  3.02905E-08  1.0E-07
  3.250E-04  8.04379E-12  1.34226E-15  4.79331E+01  3.28147E-08  1.0E-07
  3.500E-04  9.32893E-12  1.34226E-15  4.79331E+01  3.53389E-08  1.0E-07
  3.750E-04  1.07092E-11  1.34226E-15  4.79331E+01  3.78631E-08  1.0E-07
  4.000E-04  1.21847E-11  1.34226E-15  4.79331E+01  4.03873E-08  1.0E-07
  4.250E-04  1.37554E-11  1.34226E-15  4.79331E+01  4.29115E-08  1.0E-07
  4.500E-04  1.54213E-11  1.34226E-15  4.79331E+01  4.54357E-08  1.0E-07
  4.750E-04  1.71823E-11  1.34226E-15  4.79331E+01  4.79599E-08  1.0E-07
  5.000E-04  1.90386E-11  1.34226E-15  4.79331E+01  5.04841E-08  1.0E-07
  5.250E-04  2.09900E-11  1.34226E-15  4.79331E+01  5.30083E-08  1.0E-07
  5.500E-04  2.30367E-11  1.34226E-15  4.79331E+01  5.55325E-08  1.0E-07
  5.750E-04  2.51785E-11  1.34226E-15  4.79331E+01  5.80567E-08  1.0E-07
  6.000E-04  2.74156E-11  1.34226E-15  4.79331E+01  6.05809E-08  1.0E-07
  6.250E-04  2.97478E-11  1.34226E-15  4.79331E+01  6.31051E-08  1.0E-07
  6.500E-04  3.21752E-11  1.34226E-15  4.79331E+01  6.56293E-08  1.0E-07
  6.750E-04  3.46979E-11  1.34226E-15  4.79331E+01  6.81535E-08  1.0E-07
  7.000E-04  3.73157E-11  1.34226E-15  4.79331E+01  7.06777E-08  1.0E-07
  7.250E-04  4.00286E-11  1.34226E-15  4.79331E+01  7.32020E-08  1.0E-07
  7.500E-04  4.28368E-11  1.34226E-15  4.79331E+01  7.57262E-08  1.0E-07
  7.750E-04  4.57402E-11  1.34226E-15  4.79331E+01  7.82504E-08  1.0E-07
  8.000E-04  4.87388E-11  1.34226E-15  4.79331E+01  8.07746E-08  1.0E-07
  8.250E-04  5.18325E-11  1.34226E-15  4.79331E+01  8.32988E-08  1.0E-07
  8.500E-04  5.50215E-11  1.34226E-15  4.79331E+01  8.58230E-08  1.0E-07
  8.750E-04  5.83057E-11  1.34226E-15  4.79331E+01  8.83472E-08  1.0E-07
  9.000E-04  6.16850E-11  1.34226E-15  4.79331E+01  9.08714E-08  1.0E-07
  9.250E-04  6.51595E-11  1.34226E-15  4.79331E+01  9.33956E-08  1.0E-07
  9.500E-04  6.87293E-11  1.34226E-15  4.79331E+01  9.59198E-08  1.0E-07
  9.750E-04  7.23943E-11  1.34226E-15  4.79331E+01  9.84440E-08  1.0E-07
  1.000E-03  7.61544E-11  1.34226E-15  4.79331E+01  1.00968E-07  1.0E-07
  1.250E-03  1.18991E-10  1.34226E-15  4.79331E+01  1.26210E-07  1.0E-07
  1.500E-03  1.71347E-10  1.34226E-15  4.79331E+01  1.51452E-07  1.0E-07
  1.750E-03  2.33223E-10  1.34226E-15  4.79331E+01  1.76694E-07  1.0E-07
  2.000E-03  3.04617E-10  1.34226E-15  4.79331E+01  2.01936E-07  1.0E-07
  2.250E-03  3.85531E-10  1.34226E-15  4.79331E+01  2.27178E-07  1.0E-07
  2.500E-03  4.75965E-10  1.34226E-15  4.79331E+01  2.52421E-07  1.0E-07
  2.750E-03  5.75917E-10  1.34226E-15  4.79331E+01  2.77663E-07  1.0E-07
  3.000E-03  6.85389E-10  1.34226E-15  4.79331E+01  3.02905E-07  1.0E-07
  3.250E-03  8.04380E-10  1.34226E-15  4.79331E+01  3.28147E-07  1.0E-07
  3.500E-03  9.32891E-10  1.34226E-15  4.79331E+01  3.53389E-07  1.0E-07
  3.750E-03  1.07092E-09  1.34226E-15  4.79331E+01  3.78631E-07  1.0E-07
  4.000E-03  1.21847E-09  1.34226E-15  4.79331E+01  4.03873E-07  1.0E-07
  4.250E-03  1.37554E-09  1.34226E-15  4.79331E+01  4.29115E-07  1.0E-07
  4.500E-03  1.54213E-09  1.34226E-15  4.79331E+01  4.54357E-07  1.0E-07
  4.750E-03  1.71823E-09  1.34226E-15  4.79331E+01  4.79599E-07  1.0E-07
  5.000E-03  1.90386E-09  1.34226E-15  4.79331E+01  5.04841E-07  1.0E-07
  5.250E-03  2.09900E-09  1.34226E-15  4.79331E+01  5.30083E-07  1.0E-07
  5.500E-03  2.30367E-09  1.34226E-15  4.79331E+01  5.55325E-07  1.0E-07
  5.750E-03  2.51785E-09  1.34226E-15  4.79331E+01  5.80567E-07  1.0E-07
  6.000E-03  2.74156E-09  1.34226E-15  4.79331E+01  6.05809E-07  1.0E-07
  6.250E-03  2.97478E-09  1.34226E-15  4.79331E+01  6.31051E-07  1.0E-07
  6.500E-03  3.21752E-09  1.34226E-15  4.79331E+01  6.56294E-07  1.0E-07
  6.750E-03  3.46978E-09  1.34226E-15  4.79331E+01  6.81536E-07  1.0E-07
  7.000E-03  3.73156E-09  1.34226E-15  4.79331E+01  7.06778E-07  1.0E-07
  7.250E-03  4.00286E-09  1.34226E-15  4.79331E+01  7.32020E-07  1.0E-07
  7.500E-03  4.28368E-09  1.34226E-15  4.79331E+01  7.57262E-07  1.0E-07
  7.750E-03  4.57402E-09  1.34226E-15  4.79331E+01  7.82504E-07  1.0E-07
  8.000E-03  4.87388E-09  1.34226E-15  4.79331E+01  8.07746E-07  1.0E-07
  8.250E-03  5.18326E-09  1.34226E-15  4.79331E+01  8.32988E-07  1.0E-07
  8.500E-03  5.50215E-09  1.34226E-15  4.79331E+01  8.58230E-07  1.0E-07
  8.750E-03  5.83057E-09  1.34226E-15  4.79331E+01  8.83472E-07  1.0E-07
  9.000E-03  6.16850E-09  1.34226E-15  4.79331E+01  9.08714E-07  1.0E-07
  9.250E-03  6.51596E-09  1.34226E-15  4.79331E+01  9.33957E-07  1.0E-07
  9.500E-03  6.87293E-09  1.34226E-15  4.79331E+01  9.59199E-07  1.0E-07
  9.750E-03  7.23942E-09  1.34226E-15  4.79331E+01  9.84441E-07  1.0E-07
  1.000E-02  7.61544E-09  1.34226E-15  4.79331E+01  1.00968E-06  1.0E-07
  1.250E-02  1.18991E-08  1.34226E-15  4.79331E+01  1.26210E-06  1.0E-07
  1.500E-02  1.71347E-08  1.34226E-15  4.79330E+01  1.51453E-06  1.0E-07
  1.750E-02  2.33223E-08  1.34226E-15  4.79330E+01  1.76695E-06  1.0E-07
  2.000E-02  3.04617E-08  1.34226E-15  4.79330E+01  2.01937E-06  1.0E-07
  2.250E-02  3.85531E-08  1.34226E-15  4.79329E+01  2.27179E-06  1.0E-07
  2.500E-02  4.75965E-08  1.34226E-15  4.79329E+01  2.52422E-06  1.0E-07
  2.750E-02  5.75917E-08  1.34226E-15  4.79328E+01  2.77664E-06  1.0E-07
  3.000E-02  6.85389E-08  1.34225E-15  4.79328E+01  3.02907E-06  1.0E-07
  3.250E-02  8.04380E-08  1.34225E-15  4.79327E+01  3.28149E-06  1.0E-07
  3.500E-02  9.32891E-08  1.34225E-15  4.79327E+01  3.53392E-06  1.0E-07
  3.750E-02  1.07092E-07  1.34225E-15  4.79326E+01  3.78635E-06  1.0E-07
  4.000E-02  1.21847E-07  1.34225E-15  4.79325E+01  4.03878E-06  1.0E-07
  4.250E-02  1.37554E-07  1.34224E-15  4.79324E+01  4.29121E-06  1.0E-07
  4.500E-02  1.54213E-07  1.34224E-15  4.79324E+01  4.54364E-06  1.0E-07
  4.750E-02  1.71823E-07  1.34224E-15  4.79323E+01  4.79607E-06  1.0E-07
  5.000E-02  1.90386E-07  1.34224E-15  4.79322E+01  5.04850E-06  1.0E-07
  5.250E-02  2.09900E-07  1.34223E-15  4.79321E+01  5.30094E-06  1.0E-07
  5.500E-02  2.30367E-07  1.34223E-15  4.79320E+01  5.55338E-06  1.0E-07
  5.750E-02  2.51785E-07  1.34223E-15  4.79319E+01  5.80581E-06  1.0E-07
  6.000E-02  2.74156E-07  1.34223E-15  4.79318E+01  6.05825E-06  1.0E-07
  6.250E-02  2.97478E-07  1.34222E-15  4.79317E+01  6.31069E-06  1.0E-07
  6.500E-02  3.21752E-07  1.34222E-15  4.79315E+01  6.56314E-06  1.0E-07
  6.750E-02  3.46978E-07  1.34222E-15  4.79314E+01  6.81558E-06  1.0E-07
  7.000E-02  3.73156E-07  1.34221E-15  4.79313E+01  7.06803E-06  1.0E-07
  7.250E-02  4.00286E-07  1.34221E-15  4.79311E+01  7.32048E-06  1.0E-07
  7.500E-02  4.28368E-07  1.34220E-15  4.79310E+01  7.57293E-06  1.0E-07
  7.750E-02  4.57402E-07  1.34220E-15  4.79309E+01  7.82538E-06  1.0E-07
  8.000E-02  4.87388E-07  1.34220E-15  4.79307E+01  8.07784E-06  1.0E-07
  8.250E-02  5.18325E-07  1.34219E-15  4.79306E+01  8.33030E-06  1.0E-07
  8.500E-02  5.50215E-07  1.34219E-15  4.79304E+01  8.58276E-06  1.0E-07
  8.750E-02  5.83057E-07  1.34218E-15  4.79302E+01  8.83522E-06  1.0E-07
  9.000E-02  6.16850E-07  1.34218E-15  4.79301E+01  9.08768E-06  1.0E-07
  9.250E-02  6.51596E-07  1.34217E-15  4.79299E+01  9.34015E-06  1.0E-07
  9.500E-02  6.87293E-07  1.34217E-15  4.79297E+01  9.59262E-06  1.0E-07
  9.750E-02  7.23942E-07  1.34216E-15  4.79296E+01  9.84509E-06  1.0E-07
  1.000E-01  7.61543E-07  1.34216E-15  4.79294E+01  1.00976E-05  1.0E-07
  1.250E-01  1.18991E-06  1.34210E-15  4.79273E+01  1.26225E-05  1.0E-07
  1.500E-01  1.71347E-06  1.34203E-15  4.79247E+01  1.51477E-05  1.0E-07
  1.750E-01  2.33223E-06  1.34194E-15  4.79217E+01  1.76734E-05  1.0E-07
  2.000E-01  3.04617E-06  1.34185E-15  4.79182E+01  2.01996E-05  1.0E-07
  2.250E-01  3.85531E-06  1.34173E-15  4.79142E+01  2.27263E-05  1.0E-07
  2.500E-01  4.75964E-06  1.34161E-15  4.79098E+01  2.52537E-05  1.0E-07
  2.750E-01  5.75916E-06  1.34147E-15  4.79049E+01  2.77817E-05  1.0E-07
  3.000E-01  6.85388E-06  1.34132E-15  4.78995E+01  3.03106E-05  1.0E-07
  3.250E-01  8.04378E-06  1.34116E-15  4.78937E+01  3.28402E-05  1.0E-07
  3.500E-01  9.32888E-06  1.34098E-15  4.78874E+01  3.53708E-05  1.0E-07
  3.750E-01  1.07092E-05  1.34079E-15  4.78806E+01  3.79024E-05  1.0E-07
  4.000E-01  1.21846E-05  1.34059E-15  4.78734E+01  4.04350E-05  1.0E-07
  4.250E-01  1.37553E-05  1.34038E-15  4.78657E+01  4.29687E-05  1.0E-07
  4.500E-01  1.54212E-05  1.34015E-15  4.78575E+01  4.55036E-05  1.0E-07
  4.750E-01  1.71822E-05  1.33991E-15  4.78489E+01  4.80397E-05  1.0E-07
  5.000E-01  1.90385E-05  1.33965E-15  4.78398E+01  5.05772E-05  1.0E-07
  5.250E-01  2.09899E-05  1.33938E-15  4.78303E+01  5.31161E-05  1.0E-07
  5.500E-01  2.30365E-05  1.33910E-15  4.78203E+01  5.56565E-05  1.0E-07
  5.750E-01  2.51783E-05  1.33881E-15  4.78098E+01  5.81983E-05  1.0E-07
  6.000E-01  2.74153E-05  1.33850E-15  4.77989E+01  6.07418E-05  1.0E-07
  6.250E-01  2.97475E-05  1.33819E-15  4.77875E+01  6.32870E-05  1.0E-07
  6.500E-01  3.21749E-05  1.33785E-15  4.77756E+01  6.58339E-05  1.0E-07
  6.750E-01  3.46974E-05  1.33751E-15  4.77633E+01  6.83827E-05  1.0E-07
  7.000E-01  3.73152E-05  1.33715E-15  4.77505E+01  7.09333E-05  1.0E-07
  7.250E-01  4.00281E-05  1.33678E-15  4.77373E+01  7.34859E-05  1.0E-07
  7.500E-01  4.28362E-05  1.33640E-15  4.77236E+01  7.60405E-05  1.0E-07
  7.750E-01  4.57395E-05  1.33600E-15  4.77095E+01  7.85972E-05  1.0E-07
  8.000E-01  4.87380E-05  1.33559E-15  4.76949E+01  8.11561E-05  1.0E-07
  8.250E-01  5.18317E-05  1.33517E-15  4.76798E+01  8.37172E-05  1.0E-07
  8.500E-01  5.50205E-05  1.33474E-15  4.76643E+01  8.62806E-05  1.0E-07
  8.750E-01  5.83045E-05  1.33429E-15  4.76483E+01  8.88464E-05  1.0E-07
  9.000E-01  6.16838E-05  1.33383E-15  4.76319E+01  9.14147E-05  1.0E-07
  9.250E-01  6.51582E-05  1.33336E-15  4.76150E+01  9.39854E-05  1.0E-07
  9.500E-01  6.87277E-05  1.33287E-15  4.75977E+01  9.65588E-05  1.0E-07
  9.750E-01  7.23925E-05  1.33237E-15  4.75799E+01  9.91348E-05  1.0E-07
  1.000E+00  7.61524E-05  1.33186E-15  4.75617E+01  1.01714E-04  1.0E-07
  1.100E+00  9.21439E-05  1.32970E-15  4.74843E+01  1.12057E-04  1.0E-07
  1.200E+00  1.09658E-04  1.32733E-15  4.73997E+01  1.22450E-04  1.0E-07
  1.300E+00  1.28695E-04  1.32476E-15  4.73081E+01  1.32897E-04  1.0E-07
  1.400E+00  1.49255E-04  1.32200E-15  4.72094E+01  1.43402E-04  1.0E-07
  1.500E+00  1.71338E-04  1.31904E-15  4.71038E+01  1.53970E-04  1.0E-07
  1.600E+00  1.94942E-04  1.31589E-15  4.69913E+01  1.64606E-04  1.0E-07
  1.700E+00  2.20070E-04  1.31255E-15  4.68720E+01  1.75313E-04  1.0E-07
  1.800E+00  2.46720E-04  1.30902E-15  4.67460E+01  1.86097E-04  1.0E-07
  1.900E+00  2.74892E-04  1.30531E-15  4.66134E+01  1.96962E-04  1.0E-07
  2.000E+00  3.04586E-04  1.30141E-15  4.64743E+01  2.07913E-04  1.0E-07
  2.100E+00  3.35803E-04  1.29734E-15  4.63287E+01  2.18954E-04  1.0E-07
  2.200E+00  3.68542E-04  1.29308E-15  4.61768E+01  2.30089E-04  1.0E-07
  2.300E+00  4.02802E-04  1.28866E-15  4.60187E+01  2.41325E-04  1.0E-07
  2.400E+00  4.38585E-04  1.28406E-15  4.58545E+01  2.52664E-04  1.0E-07
  2.500E+00  4.75889E-04  1.27929E-15  4.56843E+01  2.64112E-04  1.0E-07
  2.600E+00  5.14715E-04  1.27436E-15  4.55082E+01  2.75673E-04  1.0E-07
  2.700E+00  5.55063E-04  1.26927E-15  4.53263E+01  2.87353E-04  1.0E-07
  2.800E+00  5.96931E-04  1.26402E-15  4.51388E+01  2.99155E-04  1.0E-07
  2.900E+00  6.40321E-04  1.25861E-15  4.49458E+01  3.11085E-04  1.0E-07
  3.000E+00  6.85233E-04  1.25305E-15  4.47473E+01  3.23146E-04  1.0E-07
  3.100E+00  7.31665E-04  1.24735E-15  4.45436E+01  3.35345E-04  1.0E-07
  3.200E+00  7.79618E-04  1.24150E-15  4.43348E+01  3.47685E-04  1.0E-07
  3.300E+00  8.29092E-04  1.23551E-15  4.41210E+01  3.60171E-04  1.0E-07
  3.400E+00  8.80086E-04  1.22939E-15  4.39023E+01  3.72808E-04  1.0E-07
  3.500E+00  9.32601E-04  1.22313E-15  4.36788E+01  3.85601E-04  1.0E-07
  3.600E+00  9.86636E-04  1.21675E-15  4.34508E+01  3.98555E-04  1.0E-07
  3.700E+00  1.04219E-03  1.21024E-15  4.32184E+01  4.11674E-04  1.0E-07
  3.800E+00  1.09927E-03  1.20361E-15  4.29816E+01  4.24963E-04  1.0E-07
  3.900E+00  1.15786E-03  1.19686E-15  4.27407E+01  4.38427E-04  1.0E-07
  4.000E+00  1.21797E-03  1.19000E-15  4.24957E+01  4.52070E-04  1.0E-07
  4.100E+00  1.27961E-03  1.18303E-15  4.22469E+01  4.65898E-04  1.0E-07
  4.200E+00  1.34276E-03  1.17596E-15  4.19943E+01  4.79916E-04  1.0E-07
  4.300E+00  1.40743E-03  1.16879E-15  4.17382E+01  4.94127E-04  1.0E-07
  4.400E+00  1.47362E-03  1.16152E-15  4.14786E+01  5.08538E-04  1.0E-07
  4.500E+00  1.54133E-03  1.15416E-15  4.12158E+01  5.23152E-04  1.0E-07
  4.600E+00  1.61056E-03  1.14671E-15  4.09498E+01  5.37975E-04  1.0E-07
  4.700E+00  1.68131E-03  1.13918E-15  4.06808E+01  5.53012E-04  1.0E-07
  4.800E+00  1.75357E-03  1.13156E-15  4.04089E+01  5.68267E-04  1.0E-07
  4.900E+00  1.82735E-03  1.12388E-15  4.01343E+01  5.83745E-04  1.0E-07
  5.000E+00  1.90265E-03  1.11611E-15  3.98572E+01  5.99451E-04  1.0E-07
  5.100E+00  1.97947E-03  1.10829E-15  3.95776E+01  6.15390E-04  1.0E-07
  5.200E+00  2.05780E-03  1.10039E-15  3.92958E+01  6.31567E-04  1.0E-07
  5.300E+00  2.13765E-03  1.09244E-15  3.90118E+01  6.47986E-04  1.0E-07
  5.400E+00  2.21902E-03  1.08443E-15  3.87258E+01  6.64652E-04  1.0E-07
  5.500E+00  2.30190E-03  1.07637E-15  3.84379E+01  6.81571E-04  1.0E-07
  5.600E+00  2.38630E-03  1.06826E-15  3.81483E+01  6.98747E-04  1.0E-07
  5.700E+00  2.47222E-03  1.06011E-15  3.78572E+01  7.16184E-04  1.0E-07
  5.800E+00  2.55965E-03  1.05191E-15  3.75646E+01  7.33888E-04  1.0E-07
  5.900E+00  2.64859E-03  1.04368E-15  3.72706E+01  7.51863E-04  1.0E-07
  6.000E+00  2.73905E-03  1.03542E-15  3.69755E+01  7.70114E-04  1.0E-07
  6.100E+00  2.83103E-03  1.02712E-15  3.66793E+01  7.88646E-04  1.0E-07
  6.200E+00  2.92452E-03  1.01880E-15  3.63821E+01  8.07464E-04  1.0E-07
  6.300E+00  3.01952E-03  1.01046E-15  3.60842E+01  8.26571E-04  1.0E-07
  6.400E+00  3.11604E-03  1.00210E-15  3.57856E+01  8.45973E-04  1.0E-07
  6.500E+00  3.21407E-03  9.93719E-16  3.54863E+01  8.65675E-04  1.0E-07
  6.600E+00  3.31362E-03  9.85327E-16  3.51867E+01  8.85680E-04  1.0E-07
  6.700E+00  3.41468E-03  9.76926E-16  3.48867E+01  9.05994E-04  1.0E-07
  6.800E+00  3.51725E-03  9.68519E-16  3.45864E+01  9.26621E-04  1.0E-07
  6.900E+00  3.62133E-03  9.60109E-16  3.42861E+01  9.47565E-04  1.0E-07
  7.000E+00  3.72692E-03  9.51698E-16  3.39858E+01  9.68832E-04  1.0E-07
  7.100E+00  3.83403E-03  9.43290E-16  3.36855E+01  9.90424E-04  1.0E-07
  7.200E+00  3.94265E-03  9.34888E-16  3.33855E+01  1.01235E-03  1.0E-07
  7.300E+00  4.05278E-03  9.26494E-16  3.30857E+01  1.03461E-03  1.0E-07
  7.400E+00  4.16442E-03  9.18112E-16  3.27864E+01  1.05720E-03  1.0E-07
  7.500E+00  4.27757E-03  9.09743E-16  3.24875E+01  1.08014E-03  1.0E-07
  7.600E+00  4.39223E-03  9.01391E-16  3.21893E+01  1.10343E-03  1.0E-07
  7.700E+00  4.50840E-03  8.93057E-16  3.18917E+01  1.12707E-03  1.0E-07
  7.800E+00  4.62608E-03  8.84745E-16  3.15948E+01  1.15107E-03  1.0E-07
  7.900E+00  4.74527E-03  8.76457E-16  3.12988E+01  1.17542E-03  1.0E-07
  8.000E+00  4.86597E-03  8.68195E-16  3.10038E+01  1.20014E-03  1.0E-07
  8.100E+00  4.98817E-03  8.59960E-16  3.07097E+01  1.22523E-03  1.0E-07
  8.200E+00  5.11188E-03  8.51757E-16  3.04168E+01  1.25068E-03  1.0E-07
  8.300E+00  5.23711E-03  8.43585E-16  3.01250E+01  1.27651E-03  1.0E-07
  8.400E+00  5.36383E-03  8.35448E-16  2.98344E+01  1.30272E-03  1.0E-07
  8.500E+00  5.49207E-03  8.27347E-16  2.95451E+01  1.32931E-03  1.0E-07
  8.600E+00  5.62181E-03  8.19284E-16  2.92571E+01  1.35629E-03  1.0E-07
  8.700E+00  5.75306E-03  8.11260E-16  2.89706E+01  1.38366E-03  1.0E-07
  8.800E+00  5.88581E-03  8.03279E-16  2.86856E+01  1.41141E-03  1.0E-07
  8.900E+00  6.02007E-03  7.95340E-16  2.84021E+01  1.43956E-03  1.0E-07
  9.000E+00  6.15583E-03  7.87446E-16  2.81202E+01  1.46811E-03  1.0E-07
  9.100E+00  6.29310E-03  7.79598E-16  2.78399E+01  1.49706E-03  1.0E-07
  9.200E+00  6.43187E-03  7.71797E-16  2.75614E+01  1.52642E-03  1.0E-07
  9.300E+00  6.57214E-03  7.64046E-16  2.72846E+01  1.55618E-03  1.0E-07
  9.400E+00  6.71392E-03  7.56344E-16  2.70095E+01  1.58635E-03  1.0E-07
  9.500E+00  6.85720E-03  7.48693E-16  2.67363E+01  1.61693E-03  1.0E-07
  9.600E+00  7.00198E-03  7.41095E-16  2.64650E+01  1.64793E-03  1.0E-07
  9.700E+00  7.14827E-03  7.33551E-16  2.61956E+01  1.67934E-03  1.0E-07
  9.800E+00  7.29605E-03  7.26060E-16  2.59281E+01  1.71117E-03  1.0E-07
  9.900E+00  7.44534E-03  7.18625E-16  2.56626E+01  1.74343E-03  1.0E-07
  1.000E+01  7.59612E-03  7.11247E-16  2.53991E+01  1.77610E-03  1.0E-07
  1.025E+01  7.97965E-03  6.93051E-16  2.47493E+01  1.85966E-03  1.0E-07
  1.050E+01  8.37255E-03  6.75223E-16  2.41126E+01  1.94589E-03  1.0E-07
  1.075E+01  8.77480E-03  6.57771E-16  2.34894E+01  2.03483E-03  1.0E-07
  1.100E+01  9.18641E-03  6.40704E-16  2.28799E+01  2.12649E-03  1.0E-07
  1.125E+01  9.60736E-03  6.24025E-16  2.22843E+01  2.22088E-03  1.0E-07
  1.150E+01  1.00376E-02  6.07738E-16  2.17027E+01  2.31801E-03  1.0E-07
  1.175E+01  1.04773E-02  5.91846E-16  2.11352E+01  2.41787E-03  1.0E-07
  1.200E+01  1.09262E-02  5.76349E-16  2.05818E+01  2.52047E-03  1.0E-07
  1.225E+01  1.13844E-02  5.61245E-16  2.00424E+01  2.62580E-03  1.0E-07
  1.250E+01  1.18520E-02  5.46533E-16  1.95171E+01  2.73384E-03  1.0E-07
  1.275E+01  1.23288E-02  5.32210E-16  1.90056E+01  2.84457E-03  1.0E-07
  1.300E+01  1.28150E-02  5.18272E-16  1.85078E+01  2.95796E-03  1.0E-07
  1.325E+01  1.33104E-02  5.04713E-16  1.80236E+01  3.07399E-03  1.0E-07
  1.350E+01  1.38150E-02  4.91528E-16  1.75528E+01  3.19262E-03  1.0E-07
  1.375E+01  1.43290E-02  4.78711E-16  1.70951E+01  3.31380E-03  1.0E-07
  1.400E+01  1.48521E-02  4.66254E-16  1.66502E+01  3.43751E-03  1.0E-07
  1.425E+01  1.53845E-02  4.54151E-16  1.62180E+01  3.56368E-03  1.0E-07
  1.450E+01  1.59262E-02  4.42394E-16  1.57982E+01  3.69226E-03  1.0E-07
  1.475E+01  1.64770E-02  4.30974E-16  1.53903E+01  3.82319E-03  1.0E-07
