 #
 # Subroutine ELSEPA. Elastic scattering of electrons and positrons
 #                    by neutral atoms and positive ions
 #
 # Projectile: electron
 # Kinetic energy = 6.00000E+06 eV = 2.20496E+05 a.u.
 #
 # Element: Ag,  Z =  47,  atomic weight = 1.07868E+02 g/mol
 #
 # Nuclear model: Fermi distribution
 #                Average radius = 5.09348E-13 cm
 #                Skin thickness = 5.46000E-14 cm
 #
 # Number of electrons = 47
 #
 # Electron density: Read from file ./database/z_047.den                                                                                                    
 #                   Number of data points =  813
 #                   Volume integral = 4.70000E+01
 #
 # WARNING: High-energy factorization with free-atom DF screening.
 #          Absorption, polarization and exchange corrections are
 #          switched off.
 #          Phase shifts are calculated for the bare nucleus.
 #          Scattering amplitudes are not evaluated.
 #
 # Integrated cross sections:
 # Total elastic cross section = 4.31075E-18 cm**2 = 1.53940E-01 a0**2
 # 1st transport cross section = 8.56143E-23 cm**2 = 3.05734E-06 a0**2
 # 2nd transport cross section = 2.39968E-22 cm**2 = 8.56940E-06 a0**2
 #
 #
 # Differential cross section:                       MU=(1-COS(THETA))/2
 #
 #  THETA        MU          DCS          DCS        Sherman      error
 #  (deg)                 (cm**2/sr)   (a0**2/sr)    function
 #----------------------------------------------------------------------
  0.000E+00  0.00000E+00  1.18117E-12  4.21805E+04  0.00000E+00  1.0E-05
  1.000E-04  7.61557E-13  1.18116E-12  4.21801E+04  0.00000E+00  1.0E-05
  1.250E-04  1.18994E-12  1.18116E-12  4.21799E+04  0.00000E+00  1.0E-05
  1.500E-04  1.71346E-12  1.18115E-12  4.21796E+04  0.00000E+00  1.0E-05
  1.750E-04  2.33225E-12  1.18114E-12  4.21793E+04  0.00000E+00  1.0E-05
  2.000E-04  3.04617E-12  1.18113E-12  4.21789E+04  0.00000E+00  1.0E-05
  2.250E-04  3.85530E-12  1.18112E-12  4.21785E+04  0.00000E+00  1.0E-05
  2.500E-04  4.75964E-12  1.18111E-12  4.21781E+04  0.00000E+00  1.0E-05
  2.750E-04  5.75917E-12  1.18109E-12  4.21776E+04  0.00000E+00  1.0E-05
  3.000E-04  6.85391E-12  1.18108E-12  4.21770E+04  0.00000E+00  1.0E-05
  3.250E-04  8.04379E-12  1.18106E-12  4.21764E+04  0.00000E+00  1.0E-05
  3.500E-04  9.32893E-12  1.18104E-12  4.21758E+04  0.00000E+00  1.0E-05
  3.750E-04  1.07092E-11  1.18102E-12  4.21751E+04  0.00000E+00  1.0E-05
  4.000E-04  1.21847E-11  1.18100E-12  4.21744E+04  0.00000E+00  1.0E-05
  4.250E-04  1.37554E-11  1.18098E-12  4.21736E+04  0.00000E+00  1.0E-05
  4.500E-04  1.54213E-11  1.18096E-12  4.21728E+04  0.00000E+00  1.0E-05
  4.750E-04  1.71823E-11  1.18093E-12  4.21719E+04  0.00000E+00  1.0E-05
  5.000E-04  1.90386E-11  1.18091E-12  4.21710E+04  0.00000E+00  1.0E-05
  5.250E-04  2.09900E-11  1.18088E-12  4.21700E+04  0.00000E+00  1.0E-05
  5.500E-04  2.30367E-11  1.18085E-12  4.21690E+04  0.00000E+00  1.0E-05
  5.750E-04  2.51785E-11  1.18082E-12  4.21679E+04  0.00000E+00  1.0E-05
  6.000E-04  2.74156E-11  1.18079E-12  4.21668E+04  0.00000E+00  1.0E-05
  6.250E-04  2.97478E-11  1.18076E-12  4.21656E+04  0.00000E+00  1.0E-05
  6.500E-04  3.21752E-11  1.18072E-12  4.21644E+04  0.00000E+00  1.0E-05
  6.750E-04  3.46979E-11  1.18069E-12  4.21631E+04  0.00000E+00  1.0E-05
  7.000E-04  3.73157E-11  1.18065E-12  4.21618E+04  0.00000E+00  1.0E-05
  7.250E-04  4.00286E-11  1.18061E-12  4.21605E+04  0.00000E+00  1.0E-05
  7.500E-04  4.28368E-11  1.18057E-12  4.21591E+04  0.00000E+00  1.0E-05
  7.750E-04  4.57402E-11  1.18053E-12  4.21576E+04  0.00000E+00  1.0E-05
  8.000E-04  4.87388E-11  1.18049E-12  4.21561E+04  0.00000E+00  1.0E-05
  8.250E-04  5.18325E-11  1.18045E-12  4.21546E+04  0.00000E+00  1.0E-05
  8.500E-04  5.50215E-11  1.18040E-12  4.21530E+04  0.00000E+00  1.0E-05
  8.750E-04  5.83057E-11  1.18036E-12  4.21514E+04  0.00000E+00  1.0E-05
  9.000E-04  6.16850E-11  1.18031E-12  4.21497E+04  0.00000E+00  1.0E-05
  9.250E-04  6.51595E-11  1.18026E-12  4.21480E+04  0.00000E+00  1.0E-05
  9.500E-04  6.87293E-11  1.18021E-12  4.21462E+04  0.00000E+00  1.0E-05
  9.750E-04  7.23943E-11  1.18016E-12  4.21444E+04  0.00000E+00  1.0E-05
  1.000E-03  7.61544E-11  1.18011E-12  4.21425E+04  0.00000E+00  1.0E-05
  1.250E-03  1.18991E-10  1.17951E-12  4.21212E+04  0.00000E+00  1.0E-05
  1.500E-03  1.71347E-10  1.17878E-12  4.20951E+04  0.00000E+00  1.0E-05
  1.750E-03  2.33223E-10  1.17792E-12  4.20644E+04  0.00000E+00  1.0E-05
  2.000E-03  3.04617E-10  1.17693E-12  4.20290E+04  0.00000E+00  1.0E-05
  2.250E-03  3.85531E-10  1.17581E-12  4.19890E+04  0.00000E+00  1.0E-05
  2.500E-03  4.75965E-10  1.17456E-12  4.19443E+04  0.00000E+00  1.0E-05
  2.750E-03  5.75917E-10  1.17318E-12  4.18951E+04  0.00000E+00  1.0E-05
  3.000E-03  6.85389E-10  1.17167E-12  4.18413E+04  0.00000E+00  1.0E-05
  3.250E-03  8.04380E-10  1.17004E-12  4.17829E+04  0.00000E+00  1.0E-05
  3.500E-03  9.32891E-10  1.16828E-12  4.17201E+04  0.00000E+00  1.0E-05
  3.750E-03  1.07092E-09  1.16640E-12  4.16529E+04  0.00000E+00  1.0E-05
  4.000E-03  1.21847E-09  1.16439E-12  4.15813E+04  0.00000E+00  1.0E-05
  4.250E-03  1.37554E-09  1.16227E-12  4.15053E+04  0.00000E+00  1.0E-05
  4.500E-03  1.54213E-09  1.16002E-12  4.14250E+04  0.00000E+00  1.0E-05
  4.750E-03  1.71823E-09  1.15765E-12  4.13404E+04  0.00000E+00  1.0E-05
  5.000E-03  1.90386E-09  1.15516E-12  4.12517E+04  0.00000E+00  1.0E-05
  5.250E-03  2.09900E-09  1.15256E-12  4.11588E+04  0.00000E+00  1.0E-05
  5.500E-03  2.30367E-09  1.14985E-12  4.10618E+04  0.00000E+00  1.0E-05
  5.750E-03  2.51785E-09  1.14702E-12  4.09609E+04  0.00000E+00  1.0E-05
  6.000E-03  2.74156E-09  1.14408E-12  4.08559E+04  0.00000E+00  1.0E-05
  6.250E-03  2.97478E-09  1.14103E-12  4.07471E+04  0.00000E+00  1.0E-05
  6.500E-03  3.21752E-09  1.13788E-12  4.06344E+04  0.00000E+00  1.0E-05
  6.750E-03  3.46978E-09  1.13462E-12  4.05180E+04  0.00000E+00  1.0E-05
  7.000E-03  3.73156E-09  1.13126E-12  4.03979E+04  0.00000E+00  1.0E-05
  7.250E-03  4.00286E-09  1.12779E-12  4.02742E+04  0.00000E+00  1.0E-05
  7.500E-03  4.28368E-09  1.12423E-12  4.01470E+04  0.00000E+00  1.0E-05
  7.750E-03  4.57402E-09  1.12057E-12  4.00162E+04  0.00000E+00  1.0E-05
  8.000E-03  4.87388E-09  1.11681E-12  3.98822E+04  0.00000E+00  1.0E-05
  8.250E-03  5.18326E-09  1.11297E-12  3.97447E+04  0.00000E+00  1.0E-05
  8.500E-03  5.50215E-09  1.10902E-12  3.96039E+04  0.00000E+00  1.0E-05
  8.750E-03  5.83057E-09  1.10496E-12  3.94590E+04  0.00000E+00  1.0E-05
  9.000E-03  6.16850E-09  1.10083E-12  3.93113E+04  0.00000E+00  1.0E-05
  9.250E-03  6.51596E-09  1.09662E-12  3.91609E+04  0.00000E+00  1.0E-05
  9.500E-03  6.87293E-09  1.09233E-12  3.90079E+04  0.00000E+00  1.0E-05
  9.750E-03  7.23942E-09  1.08798E-12  3.88523E+04  0.00000E+00  1.0E-05
  1.000E-02  7.61544E-09  1.08355E-12  3.86944E+04  0.00000E+00  1.0E-05
  1.250E-02  1.18991E-08  1.03553E-12  3.69793E+04  0.00000E+00  1.0E-05
  1.500E-02  1.71347E-08  9.82321E-13  3.50793E+04  0.00000E+00  1.0E-05
  1.750E-02  2.33223E-08  9.26116E-13  3.30722E+04  0.00000E+00  1.0E-05
  2.000E-02  3.04617E-08  8.68903E-13  3.10291E+04  0.00000E+00  1.0E-05
  2.250E-02  3.85531E-08  8.12214E-13  2.90047E+04  0.00000E+00  1.0E-05
  2.500E-02  4.75965E-08  7.57180E-13  2.70394E+04  0.00000E+00  1.0E-05
  2.750E-02  5.75917E-08  7.04553E-13  2.51600E+04  0.00000E+00  1.0E-05
  3.000E-02  6.85389E-08  6.54578E-13  2.33754E+04  0.00000E+00  1.0E-05
  3.250E-02  8.04380E-08  6.07741E-13  2.17028E+04  0.00000E+00  1.0E-05
  3.500E-02  9.32891E-08  5.64107E-13  2.01446E+04  0.00000E+00  1.0E-05
  3.750E-02  1.07092E-07  5.23619E-13  1.86988E+04  0.00000E+00  1.0E-05
  4.000E-02  1.21847E-07  4.86148E-13  1.73607E+04  0.00000E+00  1.0E-05
  4.250E-02  1.37554E-07  4.51400E-13  1.61198E+04  0.00000E+00  1.0E-05
  4.500E-02  1.54213E-07  4.19241E-13  1.49714E+04  0.00000E+00  1.0E-05
  4.750E-02  1.71823E-07  3.89561E-13  1.39115E+04  0.00000E+00  1.0E-05
  5.000E-02  1.90386E-07  3.62165E-13  1.29332E+04  0.00000E+00  1.0E-05
  5.250E-02  2.09900E-07  3.36867E-13  1.20297E+04  0.00000E+00  1.0E-05
  5.500E-02  2.30367E-07  3.13477E-13  1.11945E+04  0.00000E+00  1.0E-05
  5.750E-02  2.51785E-07  2.91746E-13  1.04184E+04  0.00000E+00  1.0E-05
  6.000E-02  2.74156E-07  2.71656E-13  9.70102E+03  0.00000E+00  1.0E-05
  6.250E-02  2.97478E-07  2.53073E-13  9.03740E+03  0.00000E+00  1.0E-05
  6.500E-02  3.21752E-07  2.35874E-13  8.42320E+03  0.00000E+00  1.0E-05
  6.750E-02  3.46978E-07  2.19945E-13  7.85439E+03  0.00000E+00  1.0E-05
  7.000E-02  3.73156E-07  2.05137E-13  7.32556E+03  0.00000E+00  1.0E-05
  7.250E-02  4.00286E-07  1.91391E-13  6.83471E+03  0.00000E+00  1.0E-05
  7.500E-02  4.28368E-07  1.78652E-13  6.37977E+03  0.00000E+00  1.0E-05
  7.750E-02  4.57402E-07  1.66839E-13  5.95793E+03  0.00000E+00  1.0E-05
  8.000E-02  4.87388E-07  1.55881E-13  5.56661E+03  0.00000E+00  1.0E-05
  8.250E-02  5.18325E-07  1.45703E-13  5.20317E+03  0.00000E+00  1.0E-05
  8.500E-02  5.50215E-07  1.36042E-13  4.85814E+03  0.00000E+00  1.0E-05
  8.750E-02  5.83057E-07  1.26415E-13  4.51435E+03  0.00000E+00  1.0E-05
  9.000E-02  6.16850E-07  1.17770E-13  4.20564E+03  0.00000E+00  1.0E-05
  9.250E-02  6.51596E-07  1.09987E-13  3.92771E+03  0.00000E+00  1.0E-05
  9.500E-02  6.87293E-07  1.02963E-13  3.67687E+03  0.00000E+00  1.0E-05
  9.750E-02  7.23942E-07  9.66076E-14  3.44992E+03  0.00000E+00  1.0E-05
  1.000E-01  7.61543E-07  9.08443E-14  3.24411E+03  0.00000E+00  1.0E-05
  1.250E-01  1.18991E-06  4.96953E-14  1.77465E+03  0.00000E+00  1.0E-05
  1.500E-01  1.71347E-06  2.86966E-14  1.02477E+03  0.00000E+00  1.0E-05
  1.750E-01  2.33223E-06  1.76417E-14  6.29997E+02  0.00000E+00  1.0E-05
  2.000E-01  3.04617E-06  1.15259E-14  4.11597E+02  0.00000E+00  1.0E-05
  2.250E-01  3.85531E-06  7.92581E-15  2.83036E+02  0.00000E+00  1.0E-05
  2.500E-01  4.75964E-06  5.67757E-15  2.02750E+02  0.00000E+00  1.0E-05
  2.750E-01  5.75916E-06  4.19693E-15  1.49875E+02  0.00000E+00  1.0E-05
  3.000E-01  6.85388E-06  3.17317E-15  1.13316E+02  0.00000E+00  1.0E-05
  3.250E-01  8.04378E-06  2.44411E-15  8.72806E+01  0.00000E+00  1.0E-05
  3.500E-01  9.32888E-06  1.91070E-15  6.82325E+01  0.00000E+00  1.0E-05
  3.750E-01  1.07092E-05  1.51230E-15  5.40052E+01  0.00000E+00  1.0E-05
  4.000E-01  1.21846E-05  1.20992E-15  4.32069E+01  0.00000E+00  1.0E-05
  4.250E-01  1.37553E-05  9.77196E-16  3.48963E+01  0.00000E+00  1.0E-05
  4.500E-01  1.54212E-05  7.95889E-16  2.84217E+01  0.00000E+00  1.0E-05
  4.750E-01  1.71822E-05  6.54018E-16  2.33554E+01  0.00000E+00  1.0E-05
  5.000E-01  1.90385E-05  5.41885E-16  1.93511E+01  0.00000E+00  1.0E-05
  5.250E-01  2.09899E-05  4.52828E-16  1.61708E+01  0.00000E+00  1.0E-05
  5.500E-01  2.30365E-05  3.81202E-16  1.36130E+01  0.00000E+00  1.0E-05
  5.750E-01  2.51783E-05  3.23061E-16  1.15367E+01  0.00000E+00  1.0E-05
  6.000E-01  2.74153E-05  2.75570E-16  9.84078E+00  0.00000E+00  1.0E-05
  6.250E-01  2.97475E-05  2.36513E-16  8.44605E+00  0.00000E+00  1.0E-05
  6.500E-01  3.21749E-05  2.04191E-16  7.29180E+00  0.00000E+00  1.0E-05
  6.750E-01  3.46974E-05  1.77278E-16  6.33069E+00  0.00000E+00  1.0E-05
  7.000E-01  3.73152E-05  1.54719E-16  5.52512E+00  0.00000E+00  1.0E-05
  7.250E-01  4.00281E-05  1.35693E-16  4.84567E+00  0.00000E+00  1.0E-05
  7.500E-01  4.28362E-05  1.19543E-16  4.26897E+00  0.00000E+00  1.0E-05
  7.750E-01  4.57395E-05  1.05752E-16  3.77646E+00  0.00000E+00  1.0E-05
  8.000E-01  4.87380E-05  9.39074E-17  3.35349E+00  0.00000E+00  1.0E-05
  8.250E-01  5.18317E-05  8.36844E-17  2.98842E+00  0.00000E+00  1.0E-05
  8.500E-01  5.50205E-05  7.48122E-17  2.67159E+00  0.00000E+00  1.0E-05
  8.750E-01  5.83045E-05  6.70712E-17  2.39515E+00  0.00000E+00  1.0E-05
  9.000E-01  6.16838E-05  6.03375E-17  2.15469E+00  0.00000E+00  1.0E-05
  9.250E-01  6.51582E-05  5.44574E-17  1.94471E+00  0.00000E+00  1.0E-05
  9.500E-01  6.87277E-05  4.92450E-17  1.75857E+00  0.00000E+00  1.0E-05
  9.750E-01  7.23925E-05  4.46486E-17  1.59443E+00  0.00000E+00  1.0E-05
  1.000E+00  7.61524E-05  4.05934E-17  1.44962E+00  0.00000E+00  5.4E-06
  1.100E+00  9.21439E-05  2.83012E-17  1.01065E+00  0.00000E+00  4.1E-06
  1.200E+00  1.09658E-04  2.03087E-17  7.25238E-01  0.00000E+00  2.3E-06
  1.300E+00  1.28695E-04  1.49412E-17  5.33558E-01  0.00000E+00  5.4E-07
  1.400E+00  1.49255E-04  1.12289E-17  4.00991E-01  0.00000E+00  8.0E-07
  1.500E+00  1.71338E-04  8.59789E-18  3.07036E-01  0.00000E+00  1.5E-06
  1.600E+00  1.94942E-04  6.69203E-18  2.38977E-01  0.00000E+00  1.7E-06
  1.700E+00  2.20070E-04  5.28459E-18  1.88716E-01  0.00000E+00  1.4E-06
  1.800E+00  2.46720E-04  4.22797E-18  1.50984E-01  0.00000E+00  8.0E-07
  1.900E+00  2.74892E-04  3.42261E-18  1.22223E-01  0.00000E+00  1.8E-07
  2.000E+00  3.04586E-04  2.80034E-18  1.00002E-01  0.00000E+00  3.6E-07
  2.100E+00  3.35803E-04  2.31339E-18  8.26126E-02  0.00000E+00  6.7E-07
  2.200E+00  3.68542E-04  1.92800E-18  6.88502E-02  0.00000E+00  7.5E-07
  2.300E+00  4.02802E-04  1.61971E-18  5.78410E-02  0.00000E+00  6.3E-07
  2.400E+00  4.38585E-04  1.37080E-18  4.89522E-02  0.00000E+00  3.7E-07
  2.500E+00  4.75889E-04  1.16805E-18  4.17117E-02  0.00000E+00  1.0E-07
  2.600E+00  5.14715E-04  1.00153E-18  3.57652E-02  0.00000E+00  2.0E-07
  2.700E+00  5.55063E-04  8.63742E-19  3.08448E-02  0.00000E+00  3.7E-07
  2.800E+00  5.96931E-04  7.48914E-19  2.67442E-02  0.00000E+00  4.1E-07
  2.900E+00  6.40321E-04  6.52602E-19  2.33048E-02  0.00000E+00  3.5E-07
  3.000E+00  6.85233E-04  5.71335E-19  2.04027E-02  0.00000E+00  2.0E-07
  3.100E+00  7.31665E-04  5.02370E-19  1.79400E-02  0.00000E+00  1.0E-07
  3.200E+00  7.79618E-04  4.43537E-19  1.58390E-02  0.00000E+00  1.3E-07
  3.300E+00  8.29092E-04  3.93094E-19  1.40376E-02  0.00000E+00  2.3E-07
  3.400E+00  8.80086E-04  3.49640E-19  1.24859E-02  0.00000E+00  2.5E-07
  3.500E+00  9.32601E-04  3.12045E-19  1.11433E-02  0.00000E+00  2.1E-07
  3.600E+00  9.86636E-04  2.79386E-19  9.97704E-03  0.00000E+00  1.2E-07
  3.700E+00  1.04219E-03  2.50902E-19  8.95987E-03  0.00000E+00  1.0E-07
  3.800E+00  1.09927E-03  2.25968E-19  8.06946E-03  0.00000E+00  1.0E-07
  3.900E+00  1.15786E-03  2.04063E-19  7.28722E-03  0.00000E+00  1.5E-07
  4.000E+00  1.21797E-03  1.84756E-19  6.59777E-03  0.00000E+00  1.7E-07
  4.100E+00  1.27961E-03  1.67687E-19  5.98819E-03  0.00000E+00  1.4E-07
  4.200E+00  1.34276E-03  1.52549E-19  5.44763E-03  0.00000E+00  1.0E-07
  4.300E+00  1.40743E-03  1.39087E-19  4.96688E-03  0.00000E+00  1.0E-07
  4.400E+00  1.47362E-03  1.27082E-19  4.53817E-03  0.00000E+00  1.0E-07
  4.500E+00  1.54133E-03  1.16347E-19  4.15483E-03  0.00000E+00  1.1E-07
  4.600E+00  1.61056E-03  1.06726E-19  3.81126E-03  0.00000E+00  1.2E-07
  4.700E+00  1.68131E-03  9.80823E-20  3.50258E-03  0.00000E+00  1.0E-07
  4.800E+00  1.75357E-03  9.02988E-20  3.22463E-03  0.00000E+00  1.0E-07
  4.900E+00  1.82735E-03  8.32747E-20  2.97379E-03  0.00000E+00  1.0E-07
  5.000E+00  1.90265E-03  7.69223E-20  2.74694E-03  0.00000E+00  1.0E-07
  5.100E+00  1.97947E-03  7.11661E-20  2.54139E-03  0.00000E+00  1.0E-07
  5.200E+00  2.05780E-03  6.59402E-20  2.35477E-03  0.00000E+00  1.0E-07
  5.300E+00  2.13765E-03  6.11870E-20  2.18503E-03  0.00000E+00  1.0E-07
  5.400E+00  2.21902E-03  5.68558E-20  2.03036E-03  0.00000E+00  1.0E-07
  5.500E+00  2.30190E-03  5.29025E-20  1.88918E-03  0.00000E+00  1.0E-07
  5.600E+00  2.38630E-03  4.92880E-20  1.76011E-03  0.00000E+00  1.0E-07
  5.700E+00  2.47222E-03  4.59781E-20  1.64191E-03  0.00000E+00  1.0E-07
  5.800E+00  2.55965E-03  4.29425E-20  1.53350E-03  0.00000E+00  1.0E-07
  5.900E+00  2.64859E-03  4.01543E-20  1.43394E-03  0.00000E+00  1.0E-07
  6.000E+00  2.73905E-03  3.75896E-20  1.34235E-03  0.00000E+00  1.0E-07
  6.100E+00  2.83103E-03  3.52273E-20  1.25799E-03  0.00000E+00  1.0E-07
  6.200E+00  2.92452E-03  3.30483E-20  1.18018E-03  0.00000E+00  1.0E-07
  6.300E+00  3.01952E-03  3.10360E-20  1.10831E-03  0.00000E+00  1.0E-07
  6.400E+00  3.11604E-03  2.91751E-20  1.04186E-03  0.00000E+00  1.0E-07
  6.500E+00  3.21407E-03  2.74523E-20  9.80341E-04  0.00000E+00  1.0E-07
  6.600E+00  3.31362E-03  2.58554E-20  9.23312E-04  0.00000E+00  1.0E-07
  6.700E+00  3.41468E-03  2.43734E-20  8.70389E-04  0.00000E+00  1.0E-07
  6.800E+00  3.51725E-03  2.29965E-20  8.21221E-04  0.00000E+00  1.0E-07
  6.900E+00  3.62133E-03  2.17160E-20  7.75494E-04  0.00000E+00  1.0E-07
  7.000E+00  3.72692E-03  2.05239E-20  7.32921E-04  0.00000E+00  1.0E-07
  7.100E+00  3.83403E-03  1.94128E-20  6.93244E-04  0.00000E+00  1.0E-07
  7.200E+00  3.94265E-03  1.83763E-20  6.56228E-04  0.00000E+00  1.0E-07
  7.300E+00  4.05278E-03  1.74084E-20  6.21664E-04  0.00000E+00  1.0E-07
  7.400E+00  4.16442E-03  1.65037E-20  5.89357E-04  0.00000E+00  1.0E-07
  7.500E+00  4.27757E-03  1.56573E-20  5.59133E-04  0.00000E+00  1.0E-07
  7.600E+00  4.39223E-03  1.48648E-20  5.30833E-04  0.00000E+00  1.0E-07
  7.700E+00  4.50840E-03  1.41221E-20  5.04311E-04  0.00000E+00  1.0E-07
  7.800E+00  4.62608E-03  1.34255E-20  4.79433E-04  0.00000E+00  1.0E-07
  7.900E+00  4.74527E-03  1.27715E-20  4.56080E-04  0.00000E+00  1.0E-07
  8.000E+00  4.86597E-03  1.21572E-20  4.34140E-04  0.00000E+00  1.0E-07
  8.100E+00  4.98817E-03  1.15795E-20  4.13511E-04  0.00000E+00  1.0E-07
  8.200E+00  5.11188E-03  1.10359E-20  3.94101E-04  0.00000E+00  1.0E-07
  8.300E+00  5.23711E-03  1.05241E-20  3.75823E-04  0.00000E+00  1.0E-07
  8.400E+00  5.36383E-03  1.00418E-20  3.58599E-04  0.00000E+00  1.0E-07
  8.500E+00  5.49207E-03  9.58695E-21  3.42356E-04  0.00000E+00  1.0E-07
  8.600E+00  5.62181E-03  9.15775E-21  3.27029E-04  0.00000E+00  1.0E-07
  8.700E+00  5.75306E-03  8.75247E-21  3.12556E-04  0.00000E+00  1.0E-07
  8.800E+00  5.88581E-03  8.36950E-21  2.98880E-04  0.00000E+00  1.0E-07
  8.900E+00  6.02007E-03  8.00741E-21  2.85950E-04  0.00000E+00  1.0E-07
  9.000E+00  6.15583E-03  7.66480E-21  2.73715E-04  0.00000E+00  1.0E-07
  9.100E+00  6.29310E-03  7.34047E-21  2.62133E-04  0.00000E+00  1.0E-07
  9.200E+00  6.43187E-03  7.03321E-21  2.51161E-04  0.00000E+00  1.0E-07
  9.300E+00  6.57214E-03  6.74201E-21  2.40761E-04  0.00000E+00  1.0E-07
  9.400E+00  6.71392E-03  6.46580E-21  2.30898E-04  0.00000E+00  1.0E-07
  9.500E+00  6.85720E-03  6.20372E-21  2.21539E-04  0.00000E+00  1.0E-07
  9.600E+00  7.00198E-03  5.95486E-21  2.12652E-04  0.00000E+00  1.0E-07
  9.700E+00  7.14827E-03  5.71847E-21  2.04210E-04  0.00000E+00  1.0E-07
  9.800E+00  7.29605E-03  5.49377E-21  1.96186E-04  0.00000E+00  1.0E-07
  9.900E+00  7.44534E-03  5.28009E-21  1.88556E-04  0.00000E+00  1.0E-07
  1.000E+01  7.59612E-03  5.07678E-21  1.81295E-04  0.00000E+00  1.0E-07
  1.025E+01  7.97965E-03  4.61003E-21  1.64627E-04  0.00000E+00  1.0E-07
  1.050E+01  8.37255E-03  4.19611E-21  1.49846E-04  0.00000E+00  1.0E-07
  1.075E+01  8.77480E-03  3.82798E-21  1.36700E-04  0.00000E+00  1.0E-07
  1.100E+01  9.18641E-03  3.49967E-21  1.24975E-04  0.00000E+00  1.0E-07
  1.125E+01  9.60736E-03  3.20609E-21  1.14492E-04  0.00000E+00  1.0E-07
  1.150E+01  1.00376E-02  2.94293E-21  1.05094E-04  0.00000E+00  1.0E-07
  1.175E+01  1.04773E-02  2.70645E-21  9.66492E-05  0.00000E+00  1.0E-07
  1.200E+01  1.09262E-02  2.49347E-21  8.90434E-05  0.00000E+00  1.0E-07
  1.225E+01  1.13844E-02  2.30122E-21  8.21779E-05  0.00000E+00  1.0E-07
  1.250E+01  1.18520E-02  2.12731E-21  7.59676E-05  0.00000E+00  1.0E-07
  1.275E+01  1.23288E-02  1.96968E-21  7.03386E-05  0.00000E+00  1.0E-07
  1.300E+01  1.28150E-02  1.82653E-21  6.52265E-05  0.00000E+00  1.0E-07
  1.325E+01  1.33104E-02  1.69627E-21  6.05750E-05  0.00000E+00  1.0E-07
  1.350E+01  1.38150E-02  1.57754E-21  5.63350E-05  0.00000E+00  1.0E-07
  1.375E+01  1.43290E-02  1.46912E-21  5.24634E-05  0.00000E+00  1.0E-07
  1.400E+01  1.48521E-02  1.36996E-21  4.89222E-05  0.00000E+00  1.0E-07
  1.425E+01  1.53845E-02  1.27911E-21  4.56779E-05  0.00000E+00  1.0E-07
