 #  Scattering field.
 #  All quantities in atomic units (a.u.), unless otherwise indicated.
 #  Z =  47, NELEC =  47,   projectile: electron
 #  Kinetic energy = 3.67493E+05 a.u. = 1.00000E+07 eV
 #
 #   i       r           r*V         r*Vst        r*Vex       r*Vpol       r*Wabs        rho_e
 #------------------------------------------------------------------------------------------------
     1  0.00000E+00 -0.00000E+00 -0.00000E+00  0.00000E+00  0.00000E+00  0.00000E+00  0.00000E+00
     2  9.72398E-07 -6.63841E-01 -6.63841E-01  0.00000E+00  0.00000E+00  0.00000E+00  0.00000E+00
     3  1.96481E-06 -1.34121E+00 -1.34121E+00  0.00000E+00  0.00000E+00  0.00000E+00  0.00000E+00
     4  2.97763E-06 -2.03222E+00 -2.03222E+00  0.00000E+00  0.00000E+00  0.00000E+00  0.00000E+00
     5  4.01130E-06 -2.73701E+00 -2.73701E+00  0.00000E+00  0.00000E+00  0.00000E+00  0.00000E+00
     6  5.06624E-06 -3.45568E+00 -3.45568E+00  0.00000E+00  0.00000E+00  0.00000E+00  0.00000E+00
     7  6.14288E-06 -4.18830E+00 -4.18830E+00  0.00000E+00  0.00000E+00  0.00000E+00  0.00000E+00
     8  7.24168E-06 -4.93495E+00 -4.93495E+00  0.00000E+00  0.00000E+00  0.00000E+00  0.00000E+00
     9  8.36309E-06 -5.69569E+00 -5.69569E+00  0.00000E+00  0.00000E+00  0.00000E+00  0.00000E+00
    10  9.50757E-06 -6.47054E+00 -6.47054E+00  0.00000E+00  0.00000E+00  0.00000E+00  0.00000E+00
    11  1.06756E-05 -7.25951E+00 -7.25951E+00  0.00000E+00  0.00000E+00  0.00000E+00  0.00000E+00
    12  1.18677E-05 -8.06258E+00 -8.06258E+00  0.00000E+00  0.00000E+00  0.00000E+00  0.00000E+00
    13  1.30843E-05 -8.87970E+00 -8.87970E+00  0.00000E+00  0.00000E+00  0.00000E+00  0.00000E+00
    14  1.43259E-05 -9.71080E+00 -9.71080E+00  0.00000E+00  0.00000E+00  0.00000E+00  0.00000E+00
    15  1.55931E-05 -1.05558E+01 -1.05558E+01  0.00000E+00  0.00000E+00  0.00000E+00  0.00000E+00
    16  1.68863E-05 -1.14145E+01 -1.14145E+01  0.00000E+00  0.00000E+00  0.00000E+00  0.00000E+00
    17  1.82062E-05 -1.22867E+01 -1.22867E+01  0.00000E+00  0.00000E+00  0.00000E+00  0.00000E+00
    18  1.95532E-05 -1.31722E+01 -1.31722E+01  0.00000E+00  0.00000E+00  0.00000E+00  0.00000E+00
    19  2.09279E-05 -1.40708E+01 -1.40708E+01  0.00000E+00  0.00000E+00  0.00000E+00  0.00000E+00
    20  2.23310E-05 -1.49820E+01 -1.49820E+01  0.00000E+00  0.00000E+00  0.00000E+00  0.00000E+00
    21  2.37629E-05 -1.59056E+01 -1.59056E+01  0.00000E+00  0.00000E+00  0.00000E+00  0.00000E+00
    22  2.52242E-05 -1.68410E+01 -1.68410E+01  0.00000E+00  0.00000E+00  0.00000E+00  0.00000E+00
    23  2.67157E-05 -1.77878E+01 -1.77878E+01  0.00000E+00  0.00000E+00  0.00000E+00  0.00000E+00
    24  2.82378E-05 -1.87454E+01 -1.87454E+01  0.00000E+00  0.00000E+00  0.00000E+00  0.00000E+00
    25  2.97912E-05 -1.97131E+01 -1.97131E+01  0.00000E+00  0.00000E+00  0.00000E+00  0.00000E+00
    26  3.13766E-05 -2.06903E+01 -2.06903E+01  0.00000E+00  0.00000E+00  0.00000E+00  0.00000E+00
    27  3.29946E-05 -2.16760E+01 -2.16760E+01  0.00000E+00  0.00000E+00  0.00000E+00  0.00000E+00
    28  3.46460E-05 -2.26693E+01 -2.26693E+01  0.00000E+00  0.00000E+00  0.00000E+00  0.00000E+00
    29  3.63313E-05 -2.36693E+01 -2.36693E+01  0.00000E+00  0.00000E+00  0.00000E+00  0.00000E+00
    30  3.80512E-05 -2.46748E+01 -2.46748E+01  0.00000E+00  0.00000E+00  0.00000E+00  0.00000E+00
    31  3.98066E-05 -2.56846E+01 -2.56846E+01  0.00000E+00  0.00000E+00  0.00000E+00  0.00000E+00
    32  4.15981E-05 -2.66972E+01 -2.66972E+01  0.00000E+00  0.00000E+00  0.00000E+00  0.00000E+00
    33  4.34264E-05 -2.77113E+01 -2.77113E+01  0.00000E+00  0.00000E+00  0.00000E+00  0.00000E+00
    34  4.52924E-05 -2.87250E+01 -2.87250E+01  0.00000E+00  0.00000E+00  0.00000E+00  0.00000E+00
    35  4.71968E-05 -2.97367E+01 -2.97367E+01  0.00000E+00  0.00000E+00  0.00000E+00  0.00000E+00
    36  4.91403E-05 -3.07444E+01 -3.07444E+01  0.00000E+00  0.00000E+00  0.00000E+00  0.00000E+00
    37  5.11239E-05 -3.17459E+01 -3.17459E+01  0.00000E+00  0.00000E+00  0.00000E+00  0.00000E+00
    38  5.31482E-05 -3.27389E+01 -3.27389E+01  0.00000E+00  0.00000E+00  0.00000E+00  0.00000E+00
    39  5.52142E-05 -3.37209E+01 -3.37209E+01  0.00000E+00  0.00000E+00  0.00000E+00  0.00000E+00
    40  5.73227E-05 -3.46892E+01 -3.46892E+01  0.00000E+00  0.00000E+00  0.00000E+00  0.00000E+00
    41  5.94747E-05 -3.56410E+01 -3.56410E+01  0.00000E+00  0.00000E+00  0.00000E+00  0.00000E+00
    42  6.16708E-05 -3.65732E+01 -3.65732E+01  0.00000E+00  0.00000E+00  0.00000E+00  0.00000E+00
    43  6.39122E-05 -3.74824E+01 -3.74824E+01  0.00000E+00  0.00000E+00  0.00000E+00  0.00000E+00
    44  6.61997E-05 -3.83653E+01 -3.83653E+01  0.00000E+00  0.00000E+00  0.00000E+00  0.00000E+00
    45  6.85343E-05 -3.92183E+01 -3.92183E+01  0.00000E+00  0.00000E+00  0.00000E+00  0.00000E+00
    46  7.09169E-05 -4.00376E+01 -4.00376E+01  0.00000E+00  0.00000E+00  0.00000E+00  0.00000E+00
    47  7.33485E-05 -4.08196E+01 -4.08196E+01  0.00000E+00  0.00000E+00  0.00000E+00  0.00000E+00
    48  7.58302E-05 -4.15603E+01 -4.15603E+01  0.00000E+00  0.00000E+00  0.00000E+00  0.00000E+00
    49  7.83629E-05 -4.22562E+01 -4.22562E+01  0.00000E+00  0.00000E+00  0.00000E+00  0.00000E+00
    50  8.09477E-05 -4.29040E+01 -4.29040E+01  0.00000E+00  0.00000E+00  0.00000E+00  0.00000E+00
    51  8.35858E-05 -4.35006E+01 -4.35006E+01  0.00000E+00  0.00000E+00  0.00000E+00  0.00000E+00
    52  8.62781E-05 -4.40437E+01 -4.40437E+01  0.00000E+00  0.00000E+00  0.00000E+00  0.00000E+00
    53  8.90258E-05 -4.45317E+01 -4.45317E+01  0.00000E+00  0.00000E+00  0.00000E+00  0.00000E+00
    54  9.18300E-05 -4.49641E+01 -4.49641E+01  0.00000E+00  0.00000E+00  0.00000E+00  0.00000E+00
    55  9.46920E-05 -4.53414E+01 -4.53414E+01  0.00000E+00  0.00000E+00  0.00000E+00  0.00000E+00
    56  9.76128E-05 -4.56655E+01 -4.56655E+01  0.00000E+00  0.00000E+00  0.00000E+00  0.00000E+00
    57  1.00594E-04 -4.59395E+01 -4.59395E+01  0.00000E+00  0.00000E+00  0.00000E+00  0.00000E+00
    58  1.03636E-04 -4.61672E+01 -4.61672E+01  0.00000E+00  0.00000E+00  0.00000E+00  0.00000E+00
    59  1.06741E-04 -4.63535E+01 -4.63535E+01  0.00000E+00  0.00000E+00  0.00000E+00  0.00000E+00
    60  1.09910E-04 -4.65036E+01 -4.65036E+01  0.00000E+00  0.00000E+00  0.00000E+00  0.00000E+00
    61  1.13144E-04 -4.66228E+01 -4.66228E+01  0.00000E+00  0.00000E+00  0.00000E+00  0.00000E+00
    62  1.16444E-04 -4.67162E+01 -4.67162E+01  0.00000E+00  0.00000E+00  0.00000E+00  0.00000E+00
    63  1.19813E-04 -4.67884E+01 -4.67884E+01  0.00000E+00  0.00000E+00  0.00000E+00  0.00000E+00
    64  1.23250E-04 -4.68437E+01 -4.68437E+01  0.00000E+00  0.00000E+00  0.00000E+00  0.00000E+00
    65  1.26759E-04 -4.68855E+01 -4.68855E+01  0.00000E+00  0.00000E+00  0.00000E+00  0.00000E+00
    66  1.30339E-04 -4.69168E+01 -4.69168E+01  0.00000E+00  0.00000E+00  0.00000E+00  0.00000E+00
    67  1.33994E-04 -4.69401E+01 -4.69401E+01  0.00000E+00  0.00000E+00  0.00000E+00  0.00000E+00
    68  1.37723E-04 -4.69572E+01 -4.69572E+01  0.00000E+00  0.00000E+00  0.00000E+00  0.00000E+00
    69  1.41530E-04 -4.69696E+01 -4.69696E+01  0.00000E+00  0.00000E+00  0.00000E+00  0.00000E+00
    70  1.45414E-04 -4.69786E+01 -4.69786E+01  0.00000E+00  0.00000E+00  0.00000E+00  0.00000E+00
    71  1.49379E-04 -4.69851E+01 -4.69851E+01  0.00000E+00  0.00000E+00  0.00000E+00  0.00000E+00
    72  1.53425E-04 -4.69897E+01 -4.69897E+01  0.00000E+00  0.00000E+00  0.00000E+00  0.00000E+00
    73  1.57554E-04 -4.69929E+01 -4.69929E+01  0.00000E+00  0.00000E+00  0.00000E+00  0.00000E+00
    74  1.61768E-04 -4.69952E+01 -4.69952E+01  0.00000E+00  0.00000E+00  0.00000E+00  0.00000E+00
    75  1.66069E-04 -4.69968E+01 -4.69968E+01  0.00000E+00  0.00000E+00  0.00000E+00  0.00000E+00
    76  1.70459E-04 -4.69978E+01 -4.69978E+01  0.00000E+00  0.00000E+00  0.00000E+00  0.00000E+00
    77  1.74939E-04 -4.69986E+01 -4.69986E+01  0.00000E+00  0.00000E+00  0.00000E+00  0.00000E+00
    78  1.79511E-04 -4.69991E+01 -4.69991E+01  0.00000E+00  0.00000E+00  0.00000E+00  0.00000E+00
    79  1.84177E-04 -4.69994E+01 -4.69994E+01  0.00000E+00  0.00000E+00  0.00000E+00  0.00000E+00
    80  1.88939E-04 -4.69996E+01 -4.69996E+01  0.00000E+00  0.00000E+00  0.00000E+00  0.00000E+00
    81  1.93799E-04 -4.69997E+01 -4.69997E+01  0.00000E+00  0.00000E+00  0.00000E+00  0.00000E+00
    82  1.98759E-04 -4.69998E+01 -4.69998E+01  0.00000E+00  0.00000E+00  0.00000E+00  0.00000E+00
    83  2.03821E-04 -4.69999E+01 -4.69999E+01  0.00000E+00  0.00000E+00  0.00000E+00  0.00000E+00
    84  2.08988E-04 -4.69999E+01 -4.69999E+01  0.00000E+00  0.00000E+00  0.00000E+00  0.00000E+00
    85  2.14260E-04 -4.70000E+01 -4.70000E+01  0.00000E+00  0.00000E+00  0.00000E+00  0.00000E+00
    86  2.19641E-04 -4.70000E+01 -4.70000E+01  0.00000E+00  0.00000E+00  0.00000E+00  0.00000E+00
    87  2.25133E-04 -4.70000E+01 -4.70000E+01  0.00000E+00  0.00000E+00  0.00000E+00  0.00000E+00
    88  2.30738E-04 -4.70000E+01 -4.70000E+01  0.00000E+00  0.00000E+00  0.00000E+00  0.00000E+00
    89  2.36458E-04 -4.70000E+01 -4.70000E+01  0.00000E+00  0.00000E+00  0.00000E+00  0.00000E+00
    90  2.42296E-04 -4.70000E+01 -4.70000E+01  0.00000E+00  0.00000E+00  0.00000E+00  0.00000E+00
    91  2.48254E-04 -4.70000E+01 -4.70000E+01  0.00000E+00  0.00000E+00  0.00000E+00  0.00000E+00
    92  2.54335E-04 -4.70000E+01 -4.70000E+01  0.00000E+00  0.00000E+00  0.00000E+00  0.00000E+00
    93  2.60540E-04 -4.70000E+01 -4.70000E+01  0.00000E+00  0.00000E+00  0.00000E+00  0.00000E+00
    94  2.66874E-04 -4.70000E+01 -4.70000E+01  0.00000E+00  0.00000E+00  0.00000E+00  0.00000E+00
    95  2.73338E-04 -4.70000E+01 -4.70000E+01  0.00000E+00  0.00000E+00  0.00000E+00  0.00000E+00
    96  2.79934E-04 -4.70000E+01 -4.70000E+01  0.00000E+00  0.00000E+00  0.00000E+00  0.00000E+00
    97  2.86667E-04 -4.70000E+01 -4.70000E+01  0.00000E+00  0.00000E+00  0.00000E+00  0.00000E+00
    98  2.93538E-04 -4.70000E+01 -4.70000E+01  0.00000E+00  0.00000E+00  0.00000E+00  0.00000E+00
    99  3.00550E-04 -4.70000E+01 -4.70000E+01  0.00000E+00  0.00000E+00  0.00000E+00  0.00000E+00
   100  3.07707E-04 -4.70000E+01 -4.70000E+01  0.00000E+00  0.00000E+00  0.00000E+00  0.00000E+00
   101  3.15010E-04 -4.70000E+01 -4.70000E+01  0.00000E+00  0.00000E+00  0.00000E+00  0.00000E+00
   102  3.22465E-04 -4.70000E+01 -4.70000E+01  0.00000E+00  0.00000E+00  0.00000E+00  0.00000E+00
   103  3.30072E-04 -4.70000E+01 -4.70000E+01  0.00000E+00  0.00000E+00  0.00000E+00  0.00000E+00
   104  3.37836E-04 -4.70000E+01 -4.70000E+01  0.00000E+00  0.00000E+00  0.00000E+00  0.00000E+00
   105  3.45760E-04 -4.70000E+01 -4.70000E+01  0.00000E+00  0.00000E+00  0.00000E+00  0.00000E+00
   106  3.53847E-04 -4.70000E+01 -4.70000E+01  0.00000E+00  0.00000E+00  0.00000E+00  0.00000E+00
   107  3.62100E-04 -4.70000E+01 -4.70000E+01  0.00000E+00  0.00000E+00  0.00000E+00  0.00000E+00
   108  3.70523E-04 -4.70000E+01 -4.70000E+01  0.00000E+00  0.00000E+00  0.00000E+00  0.00000E+00
   109  3.79120E-04 -4.70000E+01 -4.70000E+01  0.00000E+00  0.00000E+00  0.00000E+00  0.00000E+00
   110  3.79120E-04 -4.70000E+01 -4.70000E+01 -7.85813E-04  0.00000E+00  0.00000E+00  0.00000E+00
   111  7.58239E-04 -4.70000E+01 -4.70000E+01  0.00000E+00  0.00000E+00  0.00000E+00  0.00000E+00
   112  1.51648E-03 -4.70000E+01 -4.70000E+01  0.00000E+00  0.00000E+00  0.00000E+00  0.00000E+00
   113  3.03296E-03 -4.70000E+01 -4.70000E+01  0.00000E+00  0.00000E+00  0.00000E+00  0.00000E+00
   114  6.06591E-03 -4.70000E+01 -4.70000E+01  0.00000E+00  0.00000E+00  0.00000E+00  0.00000E+00
   115  1.21318E-02 -4.70000E+01 -4.70000E+01  0.00000E+00  0.00000E+00  0.00000E+00  0.00000E+00
   116  2.42637E-02 -4.70000E+01 -4.70000E+01  0.00000E+00  0.00000E+00  0.00000E+00  0.00000E+00
   117  4.85273E-02 -4.70000E+01 -4.70000E+01  0.00000E+00  0.00000E+00  0.00000E+00  0.00000E+00
   118  9.70546E-02 -4.70000E+01 -4.70000E+01  0.00000E+00  0.00000E+00  0.00000E+00  0.00000E+00
   119  1.94109E-01 -4.70000E+01 -4.70000E+01  0.00000E+00  0.00000E+00  0.00000E+00  0.00000E+00
   120  3.88218E-01 -4.70000E+01 -4.70000E+01  0.00000E+00  0.00000E+00  0.00000E+00  0.00000E+00
   121  7.76437E-01 -4.70000E+01 -4.70000E+01  0.00000E+00  0.00000E+00  0.00000E+00  0.00000E+00
   122  1.55287E+00 -4.70000E+01 -4.70000E+01  0.00000E+00  0.00000E+00  0.00000E+00  0.00000E+00
   123  3.10575E+00 -4.70000E+01 -4.70000E+01  0.00000E+00  0.00000E+00  0.00000E+00  0.00000E+00
   124  6.21150E+00 -4.70000E+01 -4.70000E+01  0.00000E+00  0.00000E+00  0.00000E+00  0.00000E+00
   125  1.24230E+01 -4.70000E+01 -4.70000E+01  0.00000E+00  0.00000E+00  0.00000E+00  0.00000E+00
   126  2.48460E+01 -4.70000E+01 -4.70000E+01  0.00000E+00  0.00000E+00  0.00000E+00  0.00000E+00
   127  4.96920E+01 -4.70000E+01 -4.70000E+01  0.00000E+00  0.00000E+00  0.00000E+00  0.00000E+00
   128  9.93839E+01 -4.70000E+01 -4.70000E+01  0.00000E+00  0.00000E+00  0.00000E+00  0.00000E+00
   129  1.98768E+02 -4.70000E+01 -4.70000E+01  0.00000E+00  0.00000E+00  0.00000E+00  0.00000E+00
   130  3.97536E+02 -4.70000E+01 -4.70000E+01  0.00000E+00  0.00000E+00  0.00000E+00  0.00000E+00
   131  7.95071E+02 -4.70000E+01 -4.70000E+01  0.00000E+00  0.00000E+00  0.00000E+00  0.00000E+00
   132  1.59014E+03 -4.70000E+01 -4.70000E+01  0.00000E+00  0.00000E+00  0.00000E+00  0.00000E+00
   133  3.18029E+03 -4.70000E+01 -4.70000E+01  0.00000E+00  0.00000E+00  0.00000E+00  0.00000E+00
   134  6.36057E+03 -4.70000E+01 -4.70000E+01  0.00000E+00  0.00000E+00  0.00000E+00  0.00000E+00
   135  1.27211E+04 -4.70000E+01 -4.70000E+01  0.00000E+00  0.00000E+00  0.00000E+00  0.00000E+00
