 #
 # Subroutine ELSEPA. Elastic scattering of electrons and positrons
 #                    by neutral atoms and positive ions
 #
 # Projectile: electron
 # Kinetic energy = 4.00000E+02 eV = 1.46997E+01 a.u.
 #
 # Element:  O,  Z =   8,  atomic weight = 1.59994E+01 g/mol
 #
 # Nuclear model: Fermi distribution
 #                Average radius = 2.69620E-13 cm
 #                Skin thickness = 5.46000E-14 cm
 #
 # Number of electrons =  8
 #
 # Electron density: Read from file ./database/z_008.den                                                                                                    
 #                   Number of data points =  681
 #                   Volume integral = 8.00000E+00
 #
 # Furness-McCarthy exchange potential
 #
 # No absorption potential
 #
 # No correlation-polarization potential
 #
 # Integrated cross sections:
 # Total elastic cross section = 1.04564E-16 cm**2 = 3.73405E+00 a0**2
 # 1st transport cross section = 2.53578E-17 cm**2 = 9.05542E-01 a0**2
 # 2nd transport cross section = 4.02998E-17 cm**2 = 1.43913E+00 a0**2
 #
 #
 # Differential cross section:                       MU=(1-COS(THETA))/2
 #
 #  THETA        MU          DCS          DCS        Sherman      error
 #  (deg)                 (cm**2/sr)   (a0**2/sr)    function
 #----------------------------------------------------------------------
  0.000E+00  0.00000E+00  2.69879E-16  9.63754E+00  0.00000E+00  1.0E-07
  1.000E-04  7.61557E-13  2.69879E-16  9.63754E+00  3.81910E-10  1.0E-07
  1.250E-04  1.18994E-12  2.69879E-16  9.63754E+00  4.77388E-10  1.0E-07
  1.500E-04  1.71346E-12  2.69879E-16  9.63754E+00  5.72865E-10  1.0E-07
  1.750E-04  2.33225E-12  2.69879E-16  9.63754E+00  6.68343E-10  1.0E-07
  2.000E-04  3.04617E-12  2.69879E-16  9.63754E+00  7.63820E-10  1.0E-07
  2.250E-04  3.85530E-12  2.69879E-16  9.63754E+00  8.59298E-10  1.0E-07
  2.500E-04  4.75964E-12  2.69879E-16  9.63754E+00  9.54775E-10  1.0E-07
  2.750E-04  5.75917E-12  2.69879E-16  9.63754E+00  1.05025E-09  1.0E-07
  3.000E-04  6.85391E-12  2.69879E-16  9.63754E+00  1.14573E-09  1.0E-07
  3.250E-04  8.04379E-12  2.69879E-16  9.63754E+00  1.24121E-09  1.0E-07
  3.500E-04  9.32893E-12  2.69879E-16  9.63754E+00  1.33669E-09  1.0E-07
  3.750E-04  1.07092E-11  2.69879E-16  9.63754E+00  1.43216E-09  1.0E-07
  4.000E-04  1.21847E-11  2.69879E-16  9.63754E+00  1.52764E-09  1.0E-07
  4.250E-04  1.37554E-11  2.69879E-16  9.63754E+00  1.62312E-09  1.0E-07
  4.500E-04  1.54213E-11  2.69879E-16  9.63754E+00  1.71860E-09  1.0E-07
  4.750E-04  1.71823E-11  2.69879E-16  9.63754E+00  1.81407E-09  1.0E-07
  5.000E-04  1.90386E-11  2.69879E-16  9.63754E+00  1.90955E-09  1.0E-07
  5.250E-04  2.09900E-11  2.69879E-16  9.63754E+00  2.00503E-09  1.0E-07
  5.500E-04  2.30367E-11  2.69879E-16  9.63754E+00  2.10051E-09  1.0E-07
  5.750E-04  2.51785E-11  2.69879E-16  9.63754E+00  2.19598E-09  1.0E-07
  6.000E-04  2.74156E-11  2.69879E-16  9.63754E+00  2.29146E-09  1.0E-07
  6.250E-04  2.97478E-11  2.69879E-16  9.63754E+00  2.38694E-09  1.0E-07
  6.500E-04  3.21752E-11  2.69879E-16  9.63754E+00  2.48242E-09  1.0E-07
  6.750E-04  3.46979E-11  2.69879E-16  9.63754E+00  2.57789E-09  1.0E-07
  7.000E-04  3.73157E-11  2.69879E-16  9.63754E+00  2.67337E-09  1.0E-07
  7.250E-04  4.00286E-11  2.69879E-16  9.63754E+00  2.76885E-09  1.0E-07
  7.500E-04  4.28368E-11  2.69879E-16  9.63754E+00  2.86433E-09  1.0E-07
  7.750E-04  4.57402E-11  2.69879E-16  9.63754E+00  2.95980E-09  1.0E-07
  8.000E-04  4.87388E-11  2.69879E-16  9.63754E+00  3.05528E-09  1.0E-07
  8.250E-04  5.18325E-11  2.69879E-16  9.63754E+00  3.15076E-09  1.0E-07
  8.500E-04  5.50215E-11  2.69879E-16  9.63754E+00  3.24624E-09  1.0E-07
  8.750E-04  5.83057E-11  2.69879E-16  9.63754E+00  3.34171E-09  1.0E-07
  9.000E-04  6.16850E-11  2.69879E-16  9.63754E+00  3.43719E-09  1.0E-07
  9.250E-04  6.51595E-11  2.69879E-16  9.63754E+00  3.53267E-09  1.0E-07
  9.500E-04  6.87293E-11  2.69879E-16  9.63754E+00  3.62815E-09  1.0E-07
  9.750E-04  7.23943E-11  2.69879E-16  9.63754E+00  3.72362E-09  1.0E-07
  1.000E-03  7.61544E-11  2.69879E-16  9.63754E+00  3.81910E-09  1.0E-07
  1.250E-03  1.18991E-10  2.69879E-16  9.63754E+00  4.77388E-09  1.0E-07
  1.500E-03  1.71347E-10  2.69879E-16  9.63754E+00  5.72865E-09  1.0E-07
  1.750E-03  2.33223E-10  2.69879E-16  9.63754E+00  6.68343E-09  1.0E-07
  2.000E-03  3.04617E-10  2.69879E-16  9.63754E+00  7.63820E-09  1.0E-07
  2.250E-03  3.85531E-10  2.69879E-16  9.63754E+00  8.59298E-09  1.0E-07
  2.500E-03  4.75965E-10  2.69879E-16  9.63754E+00  9.54775E-09  1.0E-07
  2.750E-03  5.75917E-10  2.69879E-16  9.63754E+00  1.05025E-08  1.0E-07
  3.000E-03  6.85389E-10  2.69879E-16  9.63754E+00  1.14573E-08  1.0E-07
  3.250E-03  8.04380E-10  2.69879E-16  9.63754E+00  1.24121E-08  1.0E-07
  3.500E-03  9.32891E-10  2.69879E-16  9.63754E+00  1.33669E-08  1.0E-07
  3.750E-03  1.07092E-09  2.69879E-16  9.63754E+00  1.43216E-08  1.0E-07
  4.000E-03  1.21847E-09  2.69879E-16  9.63754E+00  1.52764E-08  1.0E-07
  4.250E-03  1.37554E-09  2.69879E-16  9.63754E+00  1.62312E-08  1.0E-07
  4.500E-03  1.54213E-09  2.69879E-16  9.63754E+00  1.71860E-08  1.0E-07
  4.750E-03  1.71823E-09  2.69879E-16  9.63754E+00  1.81407E-08  1.0E-07
  5.000E-03  1.90386E-09  2.69879E-16  9.63754E+00  1.90955E-08  1.0E-07
  5.250E-03  2.09900E-09  2.69879E-16  9.63754E+00  2.00503E-08  1.0E-07
  5.500E-03  2.30367E-09  2.69879E-16  9.63754E+00  2.10051E-08  1.0E-07
  5.750E-03  2.51785E-09  2.69879E-16  9.63754E+00  2.19598E-08  1.0E-07
  6.000E-03  2.74156E-09  2.69879E-16  9.63754E+00  2.29146E-08  1.0E-07
  6.250E-03  2.97478E-09  2.69879E-16  9.63754E+00  2.38694E-08  1.0E-07
  6.500E-03  3.21752E-09  2.69878E-16  9.63754E+00  2.48242E-08  1.0E-07
  6.750E-03  3.46978E-09  2.69878E-16  9.63754E+00  2.57789E-08  1.0E-07
  7.000E-03  3.73156E-09  2.69878E-16  9.63754E+00  2.67337E-08  1.0E-07
  7.250E-03  4.00286E-09  2.69878E-16  9.63754E+00  2.76885E-08  1.0E-07
  7.500E-03  4.28368E-09  2.69878E-16  9.63754E+00  2.86433E-08  1.0E-07
  7.750E-03  4.57402E-09  2.69878E-16  9.63754E+00  2.95980E-08  1.0E-07
  8.000E-03  4.87388E-09  2.69878E-16  9.63754E+00  3.05528E-08  1.0E-07
  8.250E-03  5.18326E-09  2.69878E-16  9.63753E+00  3.15076E-08  1.0E-07
  8.500E-03  5.50215E-09  2.69878E-16  9.63753E+00  3.24624E-08  1.0E-07
  8.750E-03  5.83057E-09  2.69878E-16  9.63753E+00  3.34171E-08  1.0E-07
  9.000E-03  6.16850E-09  2.69878E-16  9.63753E+00  3.43719E-08  1.0E-07
  9.250E-03  6.51596E-09  2.69878E-16  9.63753E+00  3.53267E-08  1.0E-07
  9.500E-03  6.87293E-09  2.69878E-16  9.63753E+00  3.62815E-08  1.0E-07
  9.750E-03  7.23942E-09  2.69878E-16  9.63753E+00  3.72362E-08  1.0E-07
  1.000E-02  7.61544E-09  2.69878E-16  9.63753E+00  3.81910E-08  1.0E-07
  1.250E-02  1.18991E-08  2.69878E-16  9.63753E+00  4.77388E-08  1.0E-07
  1.500E-02  1.71347E-08  2.69878E-16  9.63753E+00  5.72865E-08  1.0E-07
  1.750E-02  2.33223E-08  2.69878E-16  9.63752E+00  6.68343E-08  1.0E-07
  2.000E-02  3.04617E-08  2.69878E-16  9.63752E+00  7.63821E-08  1.0E-07
  2.250E-02  3.85531E-08  2.69878E-16  9.63752E+00  8.59299E-08  1.0E-07
  2.500E-02  4.75965E-08  2.69878E-16  9.63751E+00  9.54777E-08  1.0E-07
  2.750E-02  5.75917E-08  2.69878E-16  9.63750E+00  1.05025E-07  1.0E-07
  3.000E-02  6.85389E-08  2.69877E-16  9.63750E+00  1.14573E-07  1.0E-07
  3.250E-02  8.04380E-08  2.69877E-16  9.63749E+00  1.24121E-07  1.0E-07
  3.500E-02  9.32891E-08  2.69877E-16  9.63748E+00  1.33669E-07  1.0E-07
  3.750E-02  1.07092E-07  2.69877E-16  9.63747E+00  1.43217E-07  1.0E-07
  4.000E-02  1.21847E-07  2.69877E-16  9.63747E+00  1.52765E-07  1.0E-07
  4.250E-02  1.37554E-07  2.69876E-16  9.63746E+00  1.62312E-07  1.0E-07
  4.500E-02  1.54213E-07  2.69876E-16  9.63745E+00  1.71860E-07  1.0E-07
  4.750E-02  1.71823E-07  2.69876E-16  9.63744E+00  1.81408E-07  1.0E-07
  5.000E-02  1.90386E-07  2.69875E-16  9.63742E+00  1.90956E-07  1.0E-07
  5.250E-02  2.09900E-07  2.69875E-16  9.63741E+00  2.00504E-07  1.0E-07
  5.500E-02  2.30367E-07  2.69875E-16  9.63740E+00  2.10052E-07  1.0E-07
  5.750E-02  2.51785E-07  2.69874E-16  9.63739E+00  2.19600E-07  1.0E-07
  6.000E-02  2.74156E-07  2.69874E-16  9.63737E+00  2.29148E-07  1.0E-07
  6.250E-02  2.97478E-07  2.69874E-16  9.63736E+00  2.38696E-07  1.0E-07
  6.500E-02  3.21752E-07  2.69873E-16  9.63735E+00  2.48244E-07  1.0E-07
  6.750E-02  3.46978E-07  2.69873E-16  9.63733E+00  2.57792E-07  1.0E-07
  7.000E-02  3.73156E-07  2.69872E-16  9.63732E+00  2.67340E-07  1.0E-07
  7.250E-02  4.00286E-07  2.69872E-16  9.63730E+00  2.76888E-07  1.0E-07
  7.500E-02  4.28368E-07  2.69871E-16  9.63728E+00  2.86436E-07  1.0E-07
  7.750E-02  4.57402E-07  2.69871E-16  9.63727E+00  2.95984E-07  1.0E-07
  8.000E-02  4.87388E-07  2.69870E-16  9.63725E+00  3.05533E-07  1.0E-07
  8.250E-02  5.18325E-07  2.69870E-16  9.63723E+00  3.15081E-07  1.0E-07
  8.500E-02  5.50215E-07  2.69869E-16  9.63721E+00  3.24629E-07  1.0E-07
  8.750E-02  5.83057E-07  2.69869E-16  9.63719E+00  3.34177E-07  1.0E-07
  9.000E-02  6.16850E-07  2.69868E-16  9.63717E+00  3.43726E-07  1.0E-07
  9.250E-02  6.51596E-07  2.69868E-16  9.63715E+00  3.53274E-07  1.0E-07
  9.500E-02  6.87293E-07  2.69867E-16  9.63713E+00  3.62822E-07  1.0E-07
  9.750E-02  7.23942E-07  2.69866E-16  9.63711E+00  3.72371E-07  1.0E-07
  1.000E-01  7.61543E-07  2.69866E-16  9.63708E+00  3.81919E-07  1.0E-07
  1.250E-01  1.18991E-06  2.69859E-16  9.63683E+00  4.77405E-07  1.0E-07
  1.500E-01  1.71347E-06  2.69850E-16  9.63652E+00  5.72895E-07  1.0E-07
  1.750E-01  2.33223E-06  2.69840E-16  9.63615E+00  6.68391E-07  1.0E-07
  2.000E-01  3.04617E-06  2.69828E-16  9.63572E+00  7.63892E-07  1.0E-07
  2.250E-01  3.85531E-06  2.69814E-16  9.63524E+00  8.59400E-07  1.0E-07
  2.500E-01  4.75964E-06  2.69799E-16  9.63470E+00  9.54916E-07  1.0E-07
  2.750E-01  5.75916E-06  2.69782E-16  9.63410E+00  1.05044E-06  1.0E-07
  3.000E-01  6.85388E-06  2.69764E-16  9.63345E+00  1.14597E-06  1.0E-07
  3.250E-01  8.04378E-06  2.69744E-16  9.63274E+00  1.24152E-06  1.0E-07
  3.500E-01  9.32888E-06  2.69723E-16  9.63197E+00  1.33707E-06  1.0E-07
  3.750E-01  1.07092E-05  2.69700E-16  9.63115E+00  1.43264E-06  1.0E-07
  4.000E-01  1.21846E-05  2.69675E-16  9.63027E+00  1.52822E-06  1.0E-07
  4.250E-01  1.37553E-05  2.69649E-16  9.62934E+00  1.62381E-06  1.0E-07
  4.500E-01  1.54212E-05  2.69621E-16  9.62834E+00  1.71942E-06  1.0E-07
  4.750E-01  1.71822E-05  2.69592E-16  9.62729E+00  1.81504E-06  1.0E-07
  5.000E-01  1.90385E-05  2.69561E-16  9.62619E+00  1.91067E-06  1.0E-07
  5.250E-01  2.09899E-05  2.69528E-16  9.62503E+00  2.00633E-06  1.0E-07
  5.500E-01  2.30365E-05  2.69494E-16  9.62381E+00  2.10200E-06  1.0E-07
  5.750E-01  2.51783E-05  2.69458E-16  9.62253E+00  2.19769E-06  1.0E-07
  6.000E-01  2.74153E-05  2.69421E-16  9.62120E+00  2.29340E-06  1.0E-07
  6.250E-01  2.97475E-05  2.69382E-16  9.61981E+00  2.38913E-06  1.0E-07
  6.500E-01  3.21749E-05  2.69342E-16  9.61837E+00  2.48489E-06  1.0E-07
  6.750E-01  3.46974E-05  2.69300E-16  9.61687E+00  2.58066E-06  1.0E-07
  7.000E-01  3.73152E-05  2.69256E-16  9.61531E+00  2.67646E-06  1.0E-07
  7.250E-01  4.00281E-05  2.69211E-16  9.61370E+00  2.77228E-06  1.0E-07
  7.500E-01  4.28362E-05  2.69164E-16  9.61203E+00  2.86812E-06  1.0E-07
  7.750E-01  4.57395E-05  2.69116E-16  9.61030E+00  2.96399E-06  1.0E-07
  8.000E-01  4.87380E-05  2.69066E-16  9.60852E+00  3.05989E-06  1.0E-07
  8.250E-01  5.18317E-05  2.69014E-16  9.60668E+00  3.15581E-06  1.0E-07
  8.500E-01  5.50205E-05  2.68961E-16  9.60479E+00  3.25176E-06  1.0E-07
  8.750E-01  5.83045E-05  2.68907E-16  9.60284E+00  3.34774E-06  1.0E-07
  9.000E-01  6.16838E-05  2.68851E-16  9.60083E+00  3.44375E-06  1.0E-07
  9.250E-01  6.51582E-05  2.68793E-16  9.59877E+00  3.53979E-06  1.0E-07
  9.500E-01  6.87277E-05  2.68734E-16  9.59665E+00  3.63586E-06  1.0E-07
  9.750E-01  7.23925E-05  2.68673E-16  9.59448E+00  3.73196E-06  1.0E-07
  1.000E+00  7.61524E-05  2.68610E-16  9.59225E+00  3.82810E-06  1.0E-07
  1.100E+00  9.21439E-05  2.68345E-16  9.58277E+00  4.21299E-06  1.0E-07
  1.200E+00  1.09658E-04  2.68055E-16  9.57241E+00  4.59847E-06  1.0E-07
  1.300E+00  1.28695E-04  2.67740E-16  9.56117E+00  4.98460E-06  1.0E-07
  1.400E+00  1.49255E-04  2.67400E-16  9.54904E+00  5.37143E-06  1.0E-07
  1.500E+00  1.71338E-04  2.67036E-16  9.53604E+00  5.75902E-06  1.0E-07
  1.600E+00  1.94942E-04  2.66648E-16  9.52217E+00  6.14742E-06  1.0E-07
  1.700E+00  2.20070E-04  2.66235E-16  9.50744E+00  6.53669E-06  1.0E-07
  1.800E+00  2.46720E-04  2.65799E-16  9.49185E+00  6.92687E-06  1.0E-07
  1.900E+00  2.74892E-04  2.65338E-16  9.47541E+00  7.31803E-06  1.0E-07
  2.000E+00  3.04586E-04  2.64854E-16  9.45811E+00  7.71021E-06  1.0E-07
  2.100E+00  3.35803E-04  2.64346E-16  9.43998E+00  8.10348E-06  1.0E-07
  2.200E+00  3.68542E-04  2.63815E-16  9.42102E+00  8.49788E-06  1.0E-07
  2.300E+00  4.02802E-04  2.63261E-16  9.40123E+00  8.89347E-06  1.0E-07
  2.400E+00  4.38585E-04  2.62684E-16  9.38062E+00  9.29031E-06  1.0E-07
  2.500E+00  4.75889E-04  2.62084E-16  9.35920E+00  9.68844E-06  1.0E-07
  2.600E+00  5.14715E-04  2.61462E-16  9.33697E+00  1.00879E-05  1.0E-07
  2.700E+00  5.55063E-04  2.60817E-16  9.31395E+00  1.04888E-05  1.0E-07
  2.800E+00  5.96931E-04  2.60151E-16  9.29015E+00  1.08912E-05  1.0E-07
  2.900E+00  6.40321E-04  2.59462E-16  9.26556E+00  1.12951E-05  1.0E-07
  3.000E+00  6.85233E-04  2.58752E-16  9.24021E+00  1.17005E-05  1.0E-07
  3.100E+00  7.31665E-04  2.58021E-16  9.21410E+00  1.21076E-05  1.0E-07
  3.200E+00  7.79618E-04  2.57269E-16  9.18724E+00  1.25164E-05  1.0E-07
  3.300E+00  8.29092E-04  2.56496E-16  9.15964E+00  1.29269E-05  1.0E-07
  3.400E+00  8.80086E-04  2.55703E-16  9.13131E+00  1.33391E-05  1.0E-07
  3.500E+00  9.32601E-04  2.54889E-16  9.10225E+00  1.37533E-05  1.0E-07
  3.600E+00  9.86636E-04  2.54056E-16  9.07249E+00  1.41693E-05  1.0E-07
  3.700E+00  1.04219E-03  2.53203E-16  9.04203E+00  1.45873E-05  1.0E-07
  3.800E+00  1.09927E-03  2.52330E-16  9.01088E+00  1.50073E-05  1.0E-07
  3.900E+00  1.15786E-03  2.51439E-16  8.97905E+00  1.54294E-05  1.0E-07
  4.000E+00  1.21797E-03  2.50529E-16  8.94655E+00  1.58535E-05  1.0E-07
  4.100E+00  1.27961E-03  2.49601E-16  8.91340E+00  1.62799E-05  1.0E-07
  4.200E+00  1.34276E-03  2.48654E-16  8.87961E+00  1.67085E-05  1.0E-07
  4.300E+00  1.40743E-03  2.47690E-16  8.84518E+00  1.71394E-05  1.0E-07
  4.400E+00  1.47362E-03  2.46709E-16  8.81013E+00  1.75726E-05  1.0E-07
  4.500E+00  1.54133E-03  2.45710E-16  8.77448E+00  1.80082E-05  1.0E-07
  4.600E+00  1.61056E-03  2.44695E-16  8.73822E+00  1.84463E-05  1.0E-07
  4.700E+00  1.68131E-03  2.43664E-16  8.70138E+00  1.88869E-05  1.0E-07
  4.800E+00  1.75357E-03  2.42616E-16  8.66397E+00  1.93300E-05  1.0E-07
  4.900E+00  1.82735E-03  2.41553E-16  8.62600E+00  1.97758E-05  1.0E-07
  5.000E+00  1.90265E-03  2.40474E-16  8.58748E+00  2.02242E-05  1.0E-07
  5.100E+00  1.97947E-03  2.39380E-16  8.54842E+00  2.06754E-05  1.0E-07
  5.200E+00  2.05780E-03  2.38272E-16  8.50884E+00  2.11293E-05  1.0E-07
  5.300E+00  2.13765E-03  2.37149E-16  8.46875E+00  2.15861E-05  1.0E-07
  5.400E+00  2.21902E-03  2.36013E-16  8.42817E+00  2.20458E-05  1.0E-07
  5.500E+00  2.30190E-03  2.34863E-16  8.38709E+00  2.25084E-05  1.0E-07
  5.600E+00  2.38630E-03  2.33699E-16  8.34555E+00  2.29741E-05  1.0E-07
  5.700E+00  2.47222E-03  2.32523E-16  8.30355E+00  2.34428E-05  1.0E-07
  5.800E+00  2.55965E-03  2.31334E-16  8.26110E+00  2.39146E-05  1.0E-07
  5.900E+00  2.64859E-03  2.30133E-16  8.21822E+00  2.43896E-05  1.0E-07
  6.000E+00  2.73905E-03  2.28921E-16  8.17491E+00  2.48679E-05  1.0E-07
  6.100E+00  2.83103E-03  2.27697E-16  8.13120E+00  2.53494E-05  1.0E-07
  6.200E+00  2.92452E-03  2.26462E-16  8.08709E+00  2.58343E-05  1.0E-07
  6.300E+00  3.01952E-03  2.25216E-16  8.04261E+00  2.63226E-05  1.0E-07
  6.400E+00  3.11604E-03  2.23960E-16  7.99775E+00  2.68143E-05  1.0E-07
  6.500E+00  3.21407E-03  2.22694E-16  7.95254E+00  2.73096E-05  1.0E-07
  6.600E+00  3.31362E-03  2.21418E-16  7.90698E+00  2.78084E-05  1.0E-07
  6.700E+00  3.41468E-03  2.20133E-16  7.86110E+00  2.83108E-05  1.0E-07
  6.800E+00  3.51725E-03  2.18839E-16  7.81489E+00  2.88170E-05  1.0E-07
  6.900E+00  3.62133E-03  2.17537E-16  7.76839E+00  2.93268E-05  1.0E-07
  7.000E+00  3.72692E-03  2.16226E-16  7.72159E+00  2.98405E-05  1.0E-07
  7.100E+00  3.83403E-03  2.14908E-16  7.67451E+00  3.03580E-05  1.0E-07
  7.200E+00  3.94265E-03  2.13582E-16  7.62716E+00  3.08794E-05  1.0E-07
  7.300E+00  4.05278E-03  2.12249E-16  7.57957E+00  3.14048E-05  1.0E-07
  7.400E+00  4.16442E-03  2.10910E-16  7.53173E+00  3.19342E-05  1.0E-07
  7.500E+00  4.27757E-03  2.09564E-16  7.48366E+00  3.24676E-05  1.0E-07
  7.600E+00  4.39223E-03  2.08212E-16  7.43537E+00  3.30052E-05  1.0E-07
  7.700E+00  4.50840E-03  2.06854E-16  7.38688E+00  3.35470E-05  1.0E-07
  7.800E+00  4.62608E-03  2.05490E-16  7.33819E+00  3.40931E-05  1.0E-07
  7.900E+00  4.74527E-03  2.04122E-16  7.28933E+00  3.46434E-05  1.0E-07
  8.000E+00  4.86597E-03  2.02749E-16  7.24030E+00  3.51981E-05  1.0E-07
  8.100E+00  4.98817E-03  2.01372E-16  7.19111E+00  3.57572E-05  1.0E-07
  8.200E+00  5.11188E-03  1.99990E-16  7.14177E+00  3.63208E-05  1.0E-07
  8.300E+00  5.23711E-03  1.98605E-16  7.09230E+00  3.68889E-05  1.0E-07
  8.400E+00  5.36383E-03  1.97216E-16  7.04271E+00  3.74615E-05  1.0E-07
  8.500E+00  5.49207E-03  1.95824E-16  6.99301E+00  3.80388E-05  1.0E-07
  8.600E+00  5.62181E-03  1.94430E-16  6.94321E+00  3.86208E-05  1.0E-07
  8.700E+00  5.75306E-03  1.93033E-16  6.89333E+00  3.92076E-05  1.0E-07
  8.800E+00  5.88581E-03  1.91634E-16  6.84336E+00  3.97991E-05  1.0E-07
  8.900E+00  6.02007E-03  1.90233E-16  6.79333E+00  4.03955E-05  1.0E-07
  9.000E+00  6.15583E-03  1.88830E-16  6.74324E+00  4.09969E-05  1.0E-07
  9.100E+00  6.29310E-03  1.87426E-16  6.69310E+00  4.16032E-05  1.0E-07
  9.200E+00  6.43187E-03  1.86021E-16  6.64294E+00  4.22145E-05  1.0E-07
  9.300E+00  6.57214E-03  1.84616E-16  6.59274E+00  4.28309E-05  1.0E-07
  9.400E+00  6.71392E-03  1.83210E-16  6.54253E+00  4.34524E-05  1.0E-07
  9.500E+00  6.85720E-03  1.81803E-16  6.49232E+00  4.40791E-05  1.0E-07
  9.600E+00  7.00198E-03  1.80398E-16  6.44211E+00  4.47111E-05  1.0E-07
  9.700E+00  7.14827E-03  1.78992E-16  6.39192E+00  4.53484E-05  1.0E-07
  9.800E+00  7.29605E-03  1.77587E-16  6.34175E+00  4.59910E-05  1.0E-07
  9.900E+00  7.44534E-03  1.76183E-16  6.29161E+00  4.66390E-05  1.0E-07
  1.000E+01  7.59612E-03  1.74780E-16  6.24152E+00  4.72925E-05  1.0E-07
  1.025E+01  7.97965E-03  1.71280E-16  6.11653E+00  4.89505E-05  1.0E-07
  1.050E+01  8.37255E-03  1.67793E-16  5.99199E+00  5.06438E-05  1.0E-07
  1.075E+01  8.77480E-03  1.64322E-16  5.86804E+00  5.23732E-05  1.0E-07
  1.100E+01  9.18641E-03  1.60871E-16  5.74480E+00  5.41396E-05  1.0E-07
  1.125E+01  9.60736E-03  1.57443E-16  5.62239E+00  5.59437E-05  1.0E-07
  1.150E+01  1.00376E-02  1.54041E-16  5.50090E+00  5.77865E-05  1.0E-07
  1.175E+01  1.04773E-02  1.50668E-16  5.38045E+00  5.96685E-05  1.0E-07
  1.200E+01  1.09262E-02  1.47327E-16  5.26113E+00  6.15907E-05  1.0E-07
  1.225E+01  1.13844E-02  1.44020E-16  5.14303E+00  6.35538E-05  1.0E-07
  1.250E+01  1.18520E-02  1.40749E-16  5.02624E+00  6.55584E-05  1.0E-07
  1.275E+01  1.23288E-02  1.37517E-16  4.91082E+00  6.76054E-05  1.0E-07
  1.300E+01  1.28150E-02  1.34326E-16  4.79686E+00  6.96955E-05  1.0E-07
  1.325E+01  1.33104E-02  1.31177E-16  4.68441E+00  7.18292E-05  1.0E-07
  1.350E+01  1.38150E-02  1.28072E-16  4.57353E+00  7.40072E-05  1.0E-07
  1.375E+01  1.43290E-02  1.25013E-16  4.46429E+00  7.62302E-05  1.0E-07
  1.400E+01  1.48521E-02  1.22000E-16  4.35671E+00  7.84988E-05  1.0E-07
  1.425E+01  1.53845E-02  1.19036E-16  4.25086E+00  8.08135E-05  1.0E-07
  1.450E+01  1.59262E-02  1.16121E-16  4.14676E+00  8.31749E-05  1.0E-07
  1.475E+01  1.64770E-02  1.13256E-16  4.04444E+00  8.55835E-05  1.0E-07
