 #
 # Subroutine ELSEPA. Elastic scattering of electrons and positrons
 #                    by neutral atoms and positive ions
 #
 # Projectile: electron
 # Kinetic energy = 2.00000E+01 eV = 7.34986E-01 a.u.
 #
 #  ***  WARNING: Energy is too low.
 #                The reliability of the results is questionable.
 #
 # Element:  O,  Z =   8,  atomic weight = 1.59994E+01 g/mol
 #
 # Nuclear model: Fermi distribution
 #                Average radius = 2.69620E-13 cm
 #                Skin thickness = 5.46000E-14 cm
 #
 # Number of electrons =  8
 #
 # Electron density: Read from file ./database/z_008.den                                                                                                    
 #                   Number of data points =  681
 #                   Volume integral = 8.00000E+00
 #
 # Furness-McCarthy exchange potential
 #
 # No absorption potential
 #
 # No correlation-polarization potential
 #
 # Integrated cross sections:
 # Total elastic cross section = 6.68670E-16 cm**2 = 2.38786E+01 a0**2
 # 1st transport cross section = 4.96788E-16 cm**2 = 1.77406E+01 a0**2
 # 2nd transport cross section = 4.87975E-16 cm**2 = 1.74259E+01 a0**2
 #
 #
 # Differential cross section:                       MU=(1-COS(THETA))/2
 #
 #  THETA        MU          DCS          DCS        Sherman      error
 #  (deg)                 (cm**2/sr)   (a0**2/sr)    function
 #----------------------------------------------------------------------
  0.000E+00  0.00000E+00  1.49226E-16  5.32895E+00  0.00000E+00  1.0E-07
  1.000E-04  7.61557E-13  1.49226E-16  5.32895E+00  1.17199E-10  1.0E-07
  1.250E-04  1.18994E-12  1.49226E-16  5.32895E+00  1.46499E-10  1.0E-07
  1.500E-04  1.71346E-12  1.49226E-16  5.32895E+00  1.75799E-10  1.0E-07
  1.750E-04  2.33225E-12  1.49226E-16  5.32895E+00  2.05099E-10  1.0E-07
  2.000E-04  3.04617E-12  1.49226E-16  5.32895E+00  2.34398E-10  1.0E-07
  2.250E-04  3.85530E-12  1.49226E-16  5.32895E+00  2.63698E-10  1.0E-07
  2.500E-04  4.75964E-12  1.49226E-16  5.32895E+00  2.92998E-10  1.0E-07
  2.750E-04  5.75917E-12  1.49226E-16  5.32895E+00  3.22298E-10  1.0E-07
  3.000E-04  6.85391E-12  1.49226E-16  5.32895E+00  3.51598E-10  1.0E-07
  3.250E-04  8.04379E-12  1.49226E-16  5.32895E+00  3.80897E-10  1.0E-07
  3.500E-04  9.32893E-12  1.49226E-16  5.32895E+00  4.10197E-10  1.0E-07
  3.750E-04  1.07092E-11  1.49226E-16  5.32895E+00  4.39497E-10  1.0E-07
  4.000E-04  1.21847E-11  1.49226E-16  5.32895E+00  4.68797E-10  1.0E-07
  4.250E-04  1.37554E-11  1.49226E-16  5.32895E+00  4.98097E-10  1.0E-07
  4.500E-04  1.54213E-11  1.49226E-16  5.32895E+00  5.27396E-10  1.0E-07
  4.750E-04  1.71823E-11  1.49226E-16  5.32895E+00  5.56696E-10  1.0E-07
  5.000E-04  1.90386E-11  1.49226E-16  5.32895E+00  5.85996E-10  1.0E-07
  5.250E-04  2.09900E-11  1.49226E-16  5.32895E+00  6.15296E-10  1.0E-07
  5.500E-04  2.30367E-11  1.49226E-16  5.32895E+00  6.44596E-10  1.0E-07
  5.750E-04  2.51785E-11  1.49226E-16  5.32895E+00  6.73895E-10  1.0E-07
  6.000E-04  2.74156E-11  1.49226E-16  5.32895E+00  7.03195E-10  1.0E-07
  6.250E-04  2.97478E-11  1.49226E-16  5.32895E+00  7.32495E-10  1.0E-07
  6.500E-04  3.21752E-11  1.49226E-16  5.32895E+00  7.61795E-10  1.0E-07
  6.750E-04  3.46979E-11  1.49226E-16  5.32895E+00  7.91095E-10  1.0E-07
  7.000E-04  3.73157E-11  1.49226E-16  5.32895E+00  8.20394E-10  1.0E-07
  7.250E-04  4.00286E-11  1.49226E-16  5.32895E+00  8.49694E-10  1.0E-07
  7.500E-04  4.28368E-11  1.49226E-16  5.32895E+00  8.78994E-10  1.0E-07
  7.750E-04  4.57402E-11  1.49226E-16  5.32895E+00  9.08294E-10  1.0E-07
  8.000E-04  4.87388E-11  1.49226E-16  5.32895E+00  9.37594E-10  1.0E-07
  8.250E-04  5.18325E-11  1.49226E-16  5.32895E+00  9.66893E-10  1.0E-07
  8.500E-04  5.50215E-11  1.49226E-16  5.32895E+00  9.96193E-10  1.0E-07
  8.750E-04  5.83057E-11  1.49226E-16  5.32895E+00  1.02549E-09  1.0E-07
  9.000E-04  6.16850E-11  1.49226E-16  5.32895E+00  1.05479E-09  1.0E-07
  9.250E-04  6.51595E-11  1.49226E-16  5.32895E+00  1.08409E-09  1.0E-07
  9.500E-04  6.87293E-11  1.49226E-16  5.32895E+00  1.11339E-09  1.0E-07
  9.750E-04  7.23943E-11  1.49226E-16  5.32895E+00  1.14269E-09  1.0E-07
  1.000E-03  7.61544E-11  1.49226E-16  5.32895E+00  1.17199E-09  1.0E-07
  1.250E-03  1.18991E-10  1.49226E-16  5.32895E+00  1.46499E-09  1.0E-07
  1.500E-03  1.71347E-10  1.49226E-16  5.32895E+00  1.75799E-09  1.0E-07
  1.750E-03  2.33223E-10  1.49226E-16  5.32895E+00  2.05099E-09  1.0E-07
  2.000E-03  3.04617E-10  1.49226E-16  5.32895E+00  2.34398E-09  1.0E-07
  2.250E-03  3.85531E-10  1.49226E-16  5.32895E+00  2.63698E-09  1.0E-07
  2.500E-03  4.75965E-10  1.49226E-16  5.32895E+00  2.92998E-09  1.0E-07
  2.750E-03  5.75917E-10  1.49226E-16  5.32895E+00  3.22298E-09  1.0E-07
  3.000E-03  6.85389E-10  1.49226E-16  5.32895E+00  3.51598E-09  1.0E-07
  3.250E-03  8.04380E-10  1.49226E-16  5.32895E+00  3.80897E-09  1.0E-07
  3.500E-03  9.32891E-10  1.49226E-16  5.32895E+00  4.10197E-09  1.0E-07
  3.750E-03  1.07092E-09  1.49226E-16  5.32895E+00  4.39497E-09  1.0E-07
  4.000E-03  1.21847E-09  1.49226E-16  5.32895E+00  4.68797E-09  1.0E-07
  4.250E-03  1.37554E-09  1.49226E-16  5.32895E+00  4.98097E-09  1.0E-07
  4.500E-03  1.54213E-09  1.49226E-16  5.32895E+00  5.27396E-09  1.0E-07
  4.750E-03  1.71823E-09  1.49226E-16  5.32895E+00  5.56696E-09  1.0E-07
  5.000E-03  1.90386E-09  1.49226E-16  5.32895E+00  5.85996E-09  1.0E-07
  5.250E-03  2.09900E-09  1.49226E-16  5.32895E+00  6.15296E-09  1.0E-07
  5.500E-03  2.30367E-09  1.49226E-16  5.32895E+00  6.44596E-09  1.0E-07
  5.750E-03  2.51785E-09  1.49226E-16  5.32895E+00  6.73895E-09  1.0E-07
  6.000E-03  2.74156E-09  1.49226E-16  5.32895E+00  7.03195E-09  1.0E-07
  6.250E-03  2.97478E-09  1.49226E-16  5.32895E+00  7.32495E-09  1.0E-07
  6.500E-03  3.21752E-09  1.49226E-16  5.32895E+00  7.61795E-09  1.0E-07
  6.750E-03  3.46978E-09  1.49226E-16  5.32895E+00  7.91095E-09  1.0E-07
  7.000E-03  3.73156E-09  1.49226E-16  5.32895E+00  8.20395E-09  1.0E-07
  7.250E-03  4.00286E-09  1.49226E-16  5.32895E+00  8.49694E-09  1.0E-07
  7.500E-03  4.28368E-09  1.49226E-16  5.32895E+00  8.78994E-09  1.0E-07
  7.750E-03  4.57402E-09  1.49226E-16  5.32895E+00  9.08294E-09  1.0E-07
  8.000E-03  4.87388E-09  1.49226E-16  5.32895E+00  9.37594E-09  1.0E-07
  8.250E-03  5.18326E-09  1.49226E-16  5.32895E+00  9.66894E-09  1.0E-07
  8.500E-03  5.50215E-09  1.49226E-16  5.32895E+00  9.96193E-09  1.0E-07
  8.750E-03  5.83057E-09  1.49226E-16  5.32895E+00  1.02549E-08  1.0E-07
  9.000E-03  6.16850E-09  1.49226E-16  5.32895E+00  1.05479E-08  1.0E-07
  9.250E-03  6.51596E-09  1.49226E-16  5.32895E+00  1.08409E-08  1.0E-07
  9.500E-03  6.87293E-09  1.49226E-16  5.32895E+00  1.11339E-08  1.0E-07
  9.750E-03  7.23942E-09  1.49226E-16  5.32895E+00  1.14269E-08  1.0E-07
  1.000E-02  7.61544E-09  1.49226E-16  5.32895E+00  1.17199E-08  1.0E-07
  1.250E-02  1.18991E-08  1.49226E-16  5.32895E+00  1.46499E-08  1.0E-07
  1.500E-02  1.71347E-08  1.49226E-16  5.32895E+00  1.75799E-08  1.0E-07
  1.750E-02  2.33223E-08  1.49226E-16  5.32895E+00  2.05099E-08  1.0E-07
  2.000E-02  3.04617E-08  1.49226E-16  5.32895E+00  2.34399E-08  1.0E-07
  2.250E-02  3.85531E-08  1.49226E-16  5.32895E+00  2.63699E-08  1.0E-07
  2.500E-02  4.75965E-08  1.49226E-16  5.32895E+00  2.92999E-08  1.0E-07
  2.750E-02  5.75917E-08  1.49226E-16  5.32895E+00  3.22299E-08  1.0E-07
  3.000E-02  6.85389E-08  1.49226E-16  5.32895E+00  3.51599E-08  1.0E-07
  3.250E-02  8.04380E-08  1.49226E-16  5.32895E+00  3.80899E-08  1.0E-07
  3.500E-02  9.32891E-08  1.49226E-16  5.32895E+00  4.10199E-08  1.0E-07
  3.750E-02  1.07092E-07  1.49226E-16  5.32895E+00  4.39500E-08  1.0E-07
  4.000E-02  1.21847E-07  1.49226E-16  5.32895E+00  4.68800E-08  1.0E-07
  4.250E-02  1.37554E-07  1.49226E-16  5.32895E+00  4.98100E-08  1.0E-07
  4.500E-02  1.54213E-07  1.49226E-16  5.32895E+00  5.27401E-08  1.0E-07
  4.750E-02  1.71823E-07  1.49226E-16  5.32895E+00  5.56702E-08  1.0E-07
  5.000E-02  1.90386E-07  1.49226E-16  5.32895E+00  5.86002E-08  1.0E-07
  5.250E-02  2.09900E-07  1.49226E-16  5.32895E+00  6.15303E-08  1.0E-07
  5.500E-02  2.30367E-07  1.49226E-16  5.32895E+00  6.44604E-08  1.0E-07
  5.750E-02  2.51785E-07  1.49226E-16  5.32895E+00  6.73905E-08  1.0E-07
  6.000E-02  2.74156E-07  1.49226E-16  5.32895E+00  7.03206E-08  1.0E-07
  6.250E-02  2.97478E-07  1.49226E-16  5.32895E+00  7.32507E-08  1.0E-07
  6.500E-02  3.21752E-07  1.49226E-16  5.32894E+00  7.61809E-08  1.0E-07
  6.750E-02  3.46978E-07  1.49226E-16  5.32894E+00  7.91110E-08  1.0E-07
  7.000E-02  3.73156E-07  1.49226E-16  5.32894E+00  8.20412E-08  1.0E-07
  7.250E-02  4.00286E-07  1.49226E-16  5.32894E+00  8.49713E-08  1.0E-07
  7.500E-02  4.28368E-07  1.49226E-16  5.32894E+00  8.79015E-08  1.0E-07
  7.750E-02  4.57402E-07  1.49226E-16  5.32894E+00  9.08317E-08  1.0E-07
  8.000E-02  4.87388E-07  1.49226E-16  5.32894E+00  9.37619E-08  1.0E-07
  8.250E-02  5.18325E-07  1.49226E-16  5.32894E+00  9.66922E-08  1.0E-07
  8.500E-02  5.50215E-07  1.49226E-16  5.32894E+00  9.96224E-08  1.0E-07
  8.750E-02  5.83057E-07  1.49226E-16  5.32894E+00  1.02553E-07  1.0E-07
  9.000E-02  6.16850E-07  1.49226E-16  5.32894E+00  1.05483E-07  1.0E-07
  9.250E-02  6.51596E-07  1.49226E-16  5.32894E+00  1.08413E-07  1.0E-07
  9.500E-02  6.87293E-07  1.49225E-16  5.32894E+00  1.11344E-07  1.0E-07
  9.750E-02  7.23942E-07  1.49225E-16  5.32894E+00  1.14274E-07  1.0E-07
  1.000E-01  7.61543E-07  1.49225E-16  5.32894E+00  1.17204E-07  1.0E-07
  1.250E-01  1.18991E-06  1.49225E-16  5.32893E+00  1.46509E-07  1.0E-07
  1.500E-01  1.71347E-06  1.49225E-16  5.32892E+00  1.75816E-07  1.0E-07
  1.750E-01  2.33223E-06  1.49225E-16  5.32891E+00  2.05126E-07  1.0E-07
  2.000E-01  3.04617E-06  1.49224E-16  5.32890E+00  2.34439E-07  1.0E-07
  2.250E-01  3.85531E-06  1.49224E-16  5.32889E+00  2.63756E-07  1.0E-07
  2.500E-01  4.75964E-06  1.49224E-16  5.32888E+00  2.93077E-07  1.0E-07
  2.750E-01  5.75916E-06  1.49223E-16  5.32886E+00  3.22403E-07  1.0E-07
  3.000E-01  6.85388E-06  1.49223E-16  5.32884E+00  3.51734E-07  1.0E-07
  3.250E-01  8.04378E-06  1.49222E-16  5.32883E+00  3.81071E-07  1.0E-07
  3.500E-01  9.32888E-06  1.49222E-16  5.32881E+00  4.10414E-07  1.0E-07
  3.750E-01  1.07092E-05  1.49221E-16  5.32878E+00  4.39763E-07  1.0E-07
  4.000E-01  1.21846E-05  1.49221E-16  5.32876E+00  4.69120E-07  1.0E-07
  4.250E-01  1.37553E-05  1.49220E-16  5.32874E+00  4.98484E-07  1.0E-07
  4.500E-01  1.54212E-05  1.49219E-16  5.32871E+00  5.27856E-07  1.0E-07
  4.750E-01  1.71822E-05  1.49218E-16  5.32868E+00  5.57237E-07  1.0E-07
  5.000E-01  1.90385E-05  1.49218E-16  5.32866E+00  5.86627E-07  1.0E-07
  5.250E-01  2.09899E-05  1.49217E-16  5.32863E+00  6.16026E-07  1.0E-07
  5.500E-01  2.30365E-05  1.49216E-16  5.32859E+00  6.45436E-07  1.0E-07
  5.750E-01  2.51783E-05  1.49215E-16  5.32856E+00  6.74855E-07  1.0E-07
  6.000E-01  2.74153E-05  1.49214E-16  5.32853E+00  7.04286E-07  1.0E-07
  6.250E-01  2.97475E-05  1.49213E-16  5.32849E+00  7.33728E-07  1.0E-07
  6.500E-01  3.21749E-05  1.49212E-16  5.32845E+00  7.63181E-07  1.0E-07
  6.750E-01  3.46974E-05  1.49211E-16  5.32841E+00  7.92647E-07  1.0E-07
  7.000E-01  3.73152E-05  1.49210E-16  5.32837E+00  8.22126E-07  1.0E-07
  7.250E-01  4.00281E-05  1.49209E-16  5.32833E+00  8.51618E-07  1.0E-07
  7.500E-01  4.28362E-05  1.49207E-16  5.32829E+00  8.81124E-07  1.0E-07
  7.750E-01  4.57395E-05  1.49206E-16  5.32824E+00  9.10644E-07  1.0E-07
  8.000E-01  4.87380E-05  1.49205E-16  5.32820E+00  9.40178E-07  1.0E-07
  8.250E-01  5.18317E-05  1.49203E-16  5.32815E+00  9.69728E-07  1.0E-07
  8.500E-01  5.50205E-05  1.49202E-16  5.32810E+00  9.99294E-07  1.0E-07
  8.750E-01  5.83045E-05  1.49201E-16  5.32805E+00  1.02888E-06  1.0E-07
  9.000E-01  6.16838E-05  1.49199E-16  5.32800E+00  1.05847E-06  1.0E-07
  9.250E-01  6.51582E-05  1.49198E-16  5.32795E+00  1.08809E-06  1.0E-07
  9.500E-01  6.87277E-05  1.49196E-16  5.32789E+00  1.11772E-06  1.0E-07
  9.750E-01  7.23925E-05  1.49195E-16  5.32783E+00  1.14737E-06  1.0E-07
  1.000E+00  7.61524E-05  1.49193E-16  5.32778E+00  1.17704E-06  1.0E-07
  1.100E+00  9.21439E-05  1.49186E-16  5.32753E+00  1.29591E-06  1.0E-07
  1.200E+00  1.09658E-04  1.49178E-16  5.32726E+00  1.41511E-06  1.0E-07
  1.300E+00  1.28695E-04  1.49170E-16  5.32697E+00  1.53468E-06  1.0E-07
  1.400E+00  1.49255E-04  1.49161E-16  5.32665E+00  1.65464E-06  1.0E-07
  1.500E+00  1.71338E-04  1.49152E-16  5.32631E+00  1.77503E-06  1.0E-07
  1.600E+00  1.94942E-04  1.49142E-16  5.32595E+00  1.89586E-06  1.0E-07
  1.700E+00  2.20070E-04  1.49131E-16  5.32556E+00  2.01719E-06  1.0E-07
  1.800E+00  2.46720E-04  1.49119E-16  5.32515E+00  2.13902E-06  1.0E-07
  1.900E+00  2.74892E-04  1.49107E-16  5.32471E+00  2.26141E-06  1.0E-07
  2.000E+00  3.04586E-04  1.49094E-16  5.32426E+00  2.38436E-06  1.0E-07
  2.100E+00  3.35803E-04  1.49081E-16  5.32378E+00  2.50793E-06  1.0E-07
  2.200E+00  3.68542E-04  1.49067E-16  5.32327E+00  2.63212E-06  1.0E-07
  2.300E+00  4.02802E-04  1.49052E-16  5.32275E+00  2.75699E-06  1.0E-07
  2.400E+00  4.38585E-04  1.49037E-16  5.32219E+00  2.88255E-06  1.0E-07
  2.500E+00  4.75889E-04  1.49021E-16  5.32162E+00  3.00883E-06  1.0E-07
  2.600E+00  5.14715E-04  1.49004E-16  5.32102E+00  3.13588E-06  1.0E-07
  2.700E+00  5.55063E-04  1.48986E-16  5.32040E+00  3.26370E-06  1.0E-07
  2.800E+00  5.96931E-04  1.48968E-16  5.31976E+00  3.39235E-06  1.0E-07
  2.900E+00  6.40321E-04  1.48950E-16  5.31909E+00  3.52184E-06  1.0E-07
  3.000E+00  6.85233E-04  1.48930E-16  5.31840E+00  3.65221E-06  1.0E-07
  3.100E+00  7.31665E-04  1.48911E-16  5.31769E+00  3.78348E-06  1.0E-07
  3.200E+00  7.79618E-04  1.48890E-16  5.31695E+00  3.91569E-06  1.0E-07
  3.300E+00  8.29092E-04  1.48869E-16  5.31620E+00  4.04887E-06  1.0E-07
  3.400E+00  8.80086E-04  1.48847E-16  5.31541E+00  4.18305E-06  1.0E-07
  3.500E+00  9.32601E-04  1.48824E-16  5.31461E+00  4.31825E-06  1.0E-07
  3.600E+00  9.86636E-04  1.48801E-16  5.31378E+00  4.45451E-06  1.0E-07
  3.700E+00  1.04219E-03  1.48777E-16  5.31293E+00  4.59186E-06  1.0E-07
  3.800E+00  1.09927E-03  1.48753E-16  5.31205E+00  4.73032E-06  1.0E-07
  3.900E+00  1.15786E-03  1.48727E-16  5.31116E+00  4.86993E-06  1.0E-07
  4.000E+00  1.21797E-03  1.48702E-16  5.31023E+00  5.01072E-06  1.0E-07
  4.100E+00  1.27961E-03  1.48675E-16  5.30929E+00  5.15272E-06  1.0E-07
  4.200E+00  1.34276E-03  1.48648E-16  5.30833E+00  5.29595E-06  1.0E-07
  4.300E+00  1.40743E-03  1.48621E-16  5.30734E+00  5.44045E-06  1.0E-07
  4.400E+00  1.47362E-03  1.48592E-16  5.30632E+00  5.58624E-06  1.0E-07
  4.500E+00  1.54133E-03  1.48563E-16  5.30529E+00  5.73337E-06  1.0E-07
  4.600E+00  1.61056E-03  1.48534E-16  5.30423E+00  5.88185E-06  1.0E-07
  4.700E+00  1.68131E-03  1.48503E-16  5.30315E+00  6.03171E-06  1.0E-07
  4.800E+00  1.75357E-03  1.48472E-16  5.30205E+00  6.18299E-06  1.0E-07
  4.900E+00  1.82735E-03  1.48441E-16  5.30092E+00  6.33572E-06  1.0E-07
  5.000E+00  1.90265E-03  1.48409E-16  5.29977E+00  6.48992E-06  1.0E-07
  5.100E+00  1.97947E-03  1.48376E-16  5.29860E+00  6.64563E-06  1.0E-07
  5.200E+00  2.05780E-03  1.48343E-16  5.29741E+00  6.80287E-06  1.0E-07
  5.300E+00  2.13765E-03  1.48309E-16  5.29619E+00  6.96168E-06  1.0E-07
  5.400E+00  2.21902E-03  1.48274E-16  5.29495E+00  7.12208E-06  1.0E-07
  5.500E+00  2.30190E-03  1.48239E-16  5.29369E+00  7.28411E-06  1.0E-07
  5.600E+00  2.38630E-03  1.48203E-16  5.29241E+00  7.44779E-06  1.0E-07
  5.700E+00  2.47222E-03  1.48166E-16  5.29110E+00  7.61315E-06  1.0E-07
  5.800E+00  2.55965E-03  1.48129E-16  5.28978E+00  7.78023E-06  1.0E-07
  5.900E+00  2.64859E-03  1.48091E-16  5.28842E+00  7.94905E-06  1.0E-07
  6.000E+00  2.73905E-03  1.48053E-16  5.28705E+00  8.11964E-06  1.0E-07
  6.100E+00  2.83103E-03  1.48013E-16  5.28566E+00  8.29203E-06  1.0E-07
  6.200E+00  2.92452E-03  1.47974E-16  5.28424E+00  8.46625E-06  1.0E-07
  6.300E+00  3.01952E-03  1.47933E-16  5.28280E+00  8.64234E-06  1.0E-07
  6.400E+00  3.11604E-03  1.47893E-16  5.28134E+00  8.82031E-06  1.0E-07
  6.500E+00  3.21407E-03  1.47851E-16  5.27985E+00  9.00020E-06  1.0E-07
  6.600E+00  3.31362E-03  1.47809E-16  5.27835E+00  9.18204E-06  1.0E-07
  6.700E+00  3.41468E-03  1.47766E-16  5.27682E+00  9.36586E-06  1.0E-07
  6.800E+00  3.51725E-03  1.47723E-16  5.27527E+00  9.55168E-06  1.0E-07
  6.900E+00  3.62133E-03  1.47679E-16  5.27370E+00  9.73955E-06  1.0E-07
  7.000E+00  3.72692E-03  1.47634E-16  5.27211E+00  9.92947E-06  1.0E-07
  7.100E+00  3.83403E-03  1.47589E-16  5.27049E+00  1.01215E-05  1.0E-07
  7.200E+00  3.94265E-03  1.47543E-16  5.26885E+00  1.03156E-05  1.0E-07
  7.300E+00  4.05278E-03  1.47496E-16  5.26719E+00  1.05119E-05  1.0E-07
  7.400E+00  4.16442E-03  1.47449E-16  5.26551E+00  1.07104E-05  1.0E-07
  7.500E+00  4.27757E-03  1.47402E-16  5.26381E+00  1.09111E-05  1.0E-07
  7.600E+00  4.39223E-03  1.47353E-16  5.26209E+00  1.11140E-05  1.0E-07
  7.700E+00  4.50840E-03  1.47305E-16  5.26034E+00  1.13192E-05  1.0E-07
  7.800E+00  4.62608E-03  1.47255E-16  5.25858E+00  1.15267E-05  1.0E-07
  7.900E+00  4.74527E-03  1.47205E-16  5.25679E+00  1.17366E-05  1.0E-07
  8.000E+00  4.86597E-03  1.47154E-16  5.25498E+00  1.19487E-05  1.0E-07
  8.100E+00  4.98817E-03  1.47103E-16  5.25315E+00  1.21633E-05  1.0E-07
  8.200E+00  5.11188E-03  1.47051E-16  5.25130E+00  1.23803E-05  1.0E-07
  8.300E+00  5.23711E-03  1.46999E-16  5.24942E+00  1.25997E-05  1.0E-07
  8.400E+00  5.36383E-03  1.46946E-16  5.24753E+00  1.28216E-05  1.0E-07
  8.500E+00  5.49207E-03  1.46892E-16  5.24561E+00  1.30460E-05  1.0E-07
  8.600E+00  5.62181E-03  1.46838E-16  5.24368E+00  1.32729E-05  1.0E-07
  8.700E+00  5.75306E-03  1.46783E-16  5.24172E+00  1.35024E-05  1.0E-07
  8.800E+00  5.88581E-03  1.46728E-16  5.23974E+00  1.37344E-05  1.0E-07
  8.900E+00  6.02007E-03  1.46672E-16  5.23774E+00  1.39691E-05  1.0E-07
  9.000E+00  6.15583E-03  1.46615E-16  5.23572E+00  1.42064E-05  1.0E-07
  9.100E+00  6.29310E-03  1.46558E-16  5.23368E+00  1.44464E-05  1.0E-07
  9.200E+00  6.43187E-03  1.46500E-16  5.23162E+00  1.46891E-05  1.0E-07
  9.300E+00  6.57214E-03  1.46442E-16  5.22954E+00  1.49345E-05  1.0E-07
  9.400E+00  6.71392E-03  1.46383E-16  5.22743E+00  1.51826E-05  1.0E-07
  9.500E+00  6.85720E-03  1.46324E-16  5.22531E+00  1.54336E-05  1.0E-07
  9.600E+00  7.00198E-03  1.46263E-16  5.22316E+00  1.56873E-05  1.0E-07
  9.700E+00  7.14827E-03  1.46203E-16  5.22100E+00  1.59439E-05  1.0E-07
  9.800E+00  7.29605E-03  1.46142E-16  5.21881E+00  1.62034E-05  1.0E-07
  9.900E+00  7.44534E-03  1.46080E-16  5.21661E+00  1.64657E-05  1.0E-07
  1.000E+01  7.59612E-03  1.46018E-16  5.21438E+00  1.67310E-05  1.0E-07
  1.025E+01  7.97965E-03  1.45859E-16  5.20873E+00  1.74072E-05  1.0E-07
  1.050E+01  8.37255E-03  1.45698E-16  5.20295E+00  1.81022E-05  1.0E-07
  1.075E+01  8.77480E-03  1.45532E-16  5.19705E+00  1.88166E-05  1.0E-07
  1.100E+01  9.18641E-03  1.45364E-16  5.19103E+00  1.95507E-05  1.0E-07
  1.125E+01  9.60736E-03  1.45191E-16  5.18488E+00  2.03050E-05  1.0E-07
  1.150E+01  1.00376E-02  1.45016E-16  5.17861E+00  2.10798E-05  1.0E-07
  1.175E+01  1.04773E-02  1.44837E-16  5.17222E+00  2.18757E-05  1.0E-07
  1.200E+01  1.09262E-02  1.44655E-16  5.16571E+00  2.26930E-05  1.0E-07
  1.225E+01  1.13844E-02  1.44469E-16  5.15908E+00  2.35322E-05  1.0E-07
  1.250E+01  1.18520E-02  1.44280E-16  5.15234E+00  2.43936E-05  1.0E-07
  1.275E+01  1.23288E-02  1.44088E-16  5.14548E+00  2.52777E-05  1.0E-07
  1.300E+01  1.28150E-02  1.43893E-16  5.13850E+00  2.61849E-05  1.0E-07
  1.325E+01  1.33104E-02  1.43694E-16  5.13141E+00  2.71156E-05  1.0E-07
  1.350E+01  1.38150E-02  1.43493E-16  5.12421E+00  2.80702E-05  1.0E-07
  1.375E+01  1.43290E-02  1.43288E-16  5.11690E+00  2.90491E-05  1.0E-07
  1.400E+01  1.48521E-02  1.43080E-16  5.10947E+00  3.00527E-05  1.0E-07
  1.425E+01  1.53845E-02  1.42869E-16  5.10194E+00  3.10814E-05  1.0E-07
