 #
 # Subroutine ELSEPA. Elastic scattering of electrons and positrons
 #                    by neutral atoms and positive ions
 #
 # Projectile: electron
 # Kinetic energy = 9.00000E+04 eV = 3.30744E+03 a.u.
 #
 # Element:  O,  Z =   8,  atomic weight = 1.59994E+01 g/mol
 #
 # Nuclear model: Fermi distribution
 #                Average radius = 2.69620E-13 cm
 #                Skin thickness = 5.46000E-14 cm
 #
 # Number of electrons =  8
 #
 # Electron density: Read from file ./database/z_008.den                                                                                                    
 #                   Number of data points =  681
 #                   Volume integral = 8.00000E+00
 #
 # Furness-McCarthy exchange potential
 #
 # No absorption potential
 #
 # No correlation-polarization potential
 #
 # Integrated cross sections:
 # Total elastic cross section = 9.89504E-19 cm**2 = 3.53358E-02 a0**2
 # 1st transport cross section = 2.17843E-21 cm**2 = 7.77932E-05 a0**2
 # 2nd transport cross section = 5.73886E-21 cm**2 = 2.04938E-04 a0**2
 #
 #
 # Differential cross section:                       MU=(1-COS(THETA))/2
 #
 #  THETA        MU          DCS          DCS        Sherman      error
 #  (deg)                 (cm**2/sr)   (a0**2/sr)    function
 #----------------------------------------------------------------------
  0.000E+00  0.00000E+00  5.43811E-16  1.94198E+01  0.00000E+00  1.0E-07
  1.000E-04  7.61557E-13  5.43811E-16  1.94198E+01  0.00000E+00  1.0E-07
  1.250E-04  1.18994E-12  5.43811E-16  1.94198E+01  0.00000E+00  1.0E-07
  1.500E-04  1.71346E-12  5.43811E-16  1.94198E+01  0.00000E+00  1.0E-07
  1.750E-04  2.33225E-12  5.43811E-16  1.94198E+01  0.00000E+00  1.0E-07
  2.000E-04  3.04617E-12  5.43811E-16  1.94198E+01  0.00000E+00  1.0E-07
  2.250E-04  3.85530E-12  5.43811E-16  1.94198E+01  0.00000E+00  1.0E-07
  2.500E-04  4.75964E-12  5.43811E-16  1.94198E+01  0.00000E+00  1.0E-07
  2.750E-04  5.75917E-12  5.43811E-16  1.94198E+01  0.00000E+00  1.0E-07
  3.000E-04  6.85391E-12  5.43811E-16  1.94198E+01  0.00000E+00  1.0E-07
  3.250E-04  8.04379E-12  5.43811E-16  1.94198E+01  0.00000E+00  1.0E-07
  3.500E-04  9.32893E-12  5.43811E-16  1.94198E+01  0.00000E+00  1.0E-07
  3.750E-04  1.07092E-11  5.43811E-16  1.94198E+01  0.00000E+00  1.0E-07
  4.000E-04  1.21847E-11  5.43811E-16  1.94198E+01  0.00000E+00  1.0E-07
  4.250E-04  1.37554E-11  5.43811E-16  1.94198E+01  0.00000E+00  1.0E-07
  4.500E-04  1.54213E-11  5.43811E-16  1.94198E+01  0.00000E+00  1.0E-07
  4.750E-04  1.71823E-11  5.43811E-16  1.94198E+01  0.00000E+00  1.0E-07
  5.000E-04  1.90386E-11  5.43811E-16  1.94198E+01  0.00000E+00  1.0E-07
  5.250E-04  2.09900E-11  5.43811E-16  1.94198E+01  0.00000E+00  1.0E-07
  5.500E-04  2.30367E-11  5.43811E-16  1.94198E+01  0.00000E+00  1.0E-07
  5.750E-04  2.51785E-11  5.43811E-16  1.94198E+01  0.00000E+00  1.0E-07
  6.000E-04  2.74156E-11  5.43811E-16  1.94198E+01  0.00000E+00  1.0E-07
  6.250E-04  2.97478E-11  5.43811E-16  1.94198E+01  0.00000E+00  1.0E-07
  6.500E-04  3.21752E-11  5.43811E-16  1.94198E+01  0.00000E+00  1.0E-07
  6.750E-04  3.46979E-11  5.43811E-16  1.94198E+01  0.00000E+00  1.0E-07
  7.000E-04  3.73157E-11  5.43811E-16  1.94198E+01  0.00000E+00  1.0E-07
  7.250E-04  4.00286E-11  5.43811E-16  1.94198E+01  0.00000E+00  1.0E-07
  7.500E-04  4.28368E-11  5.43811E-16  1.94198E+01  0.00000E+00  1.0E-07
  7.750E-04  4.57402E-11  5.43811E-16  1.94198E+01  0.00000E+00  1.0E-07
  8.000E-04  4.87388E-11  5.43810E-16  1.94198E+01  0.00000E+00  1.0E-07
  8.250E-04  5.18325E-11  5.43810E-16  1.94198E+01  0.00000E+00  1.0E-07
  8.500E-04  5.50215E-11  5.43810E-16  1.94198E+01  0.00000E+00  1.0E-07
  8.750E-04  5.83057E-11  5.43810E-16  1.94198E+01  0.00000E+00  1.0E-07
  9.000E-04  6.16850E-11  5.43810E-16  1.94198E+01  0.00000E+00  1.0E-07
  9.250E-04  6.51595E-11  5.43810E-16  1.94198E+01  0.00000E+00  1.0E-07
  9.500E-04  6.87293E-11  5.43810E-16  1.94198E+01  0.00000E+00  1.0E-07
  9.750E-04  7.23943E-11  5.43810E-16  1.94198E+01  0.00000E+00  1.0E-07
  1.000E-03  7.61544E-11  5.43810E-16  1.94198E+01  0.00000E+00  1.0E-07
  1.250E-03  1.18991E-10  5.43810E-16  1.94198E+01  0.00000E+00  1.0E-07
  1.500E-03  1.71347E-10  5.43810E-16  1.94198E+01  0.00000E+00  1.0E-07
  1.750E-03  2.33223E-10  5.43809E-16  1.94198E+01  0.00000E+00  1.0E-07
  2.000E-03  3.04617E-10  5.43809E-16  1.94198E+01  0.00000E+00  1.0E-07
  2.250E-03  3.85531E-10  5.43808E-16  1.94197E+01  0.00000E+00  1.0E-07
  2.500E-03  4.75965E-10  5.43808E-16  1.94197E+01  0.00000E+00  1.0E-07
  2.750E-03  5.75917E-10  5.43807E-16  1.94197E+01  0.00000E+00  1.0E-07
  3.000E-03  6.85389E-10  5.43806E-16  1.94197E+01  0.00000E+00  1.0E-07
  3.250E-03  8.04380E-10  5.43805E-16  1.94196E+01  0.00000E+00  1.0E-07
  3.500E-03  9.32891E-10  5.43804E-16  1.94196E+01  0.00000E+00  1.0E-07
  3.750E-03  1.07092E-09  5.43803E-16  1.94196E+01  0.00000E+00  1.0E-07
  4.000E-03  1.21847E-09  5.43802E-16  1.94195E+01  0.00000E+00  1.0E-07
  4.250E-03  1.37554E-09  5.43801E-16  1.94195E+01  0.00000E+00  1.0E-07
  4.500E-03  1.54213E-09  5.43800E-16  1.94195E+01  0.00000E+00  1.0E-07
  4.750E-03  1.71823E-09  5.43799E-16  1.94194E+01  0.00000E+00  1.0E-07
  5.000E-03  1.90386E-09  5.43798E-16  1.94194E+01  0.00000E+00  1.0E-07
  5.250E-03  2.09900E-09  5.43796E-16  1.94193E+01  0.00000E+00  1.0E-07
  5.500E-03  2.30367E-09  5.43795E-16  1.94193E+01  0.00000E+00  1.0E-07
  5.750E-03  2.51785E-09  5.43793E-16  1.94192E+01  0.00000E+00  1.0E-07
  6.000E-03  2.74156E-09  5.43792E-16  1.94192E+01  0.00000E+00  1.0E-07
  6.250E-03  2.97478E-09  5.43790E-16  1.94191E+01  0.00000E+00  1.0E-07
  6.500E-03  3.21752E-09  5.43789E-16  1.94190E+01  0.00000E+00  1.0E-07
  6.750E-03  3.46978E-09  5.43787E-16  1.94190E+01  0.00000E+00  1.0E-07
  7.000E-03  3.73156E-09  5.43785E-16  1.94189E+01  0.00000E+00  1.0E-07
  7.250E-03  4.00286E-09  5.43783E-16  1.94189E+01  0.00000E+00  1.0E-07
  7.500E-03  4.28368E-09  5.43781E-16  1.94188E+01  0.00000E+00  1.0E-07
  7.750E-03  4.57402E-09  5.43779E-16  1.94187E+01  0.00000E+00  1.0E-07
  8.000E-03  4.87388E-09  5.43777E-16  1.94186E+01  0.00000E+00  1.0E-07
  8.250E-03  5.18326E-09  5.43775E-16  1.94186E+01  0.00000E+00  1.0E-07
  8.500E-03  5.50215E-09  5.43773E-16  1.94185E+01  0.00000E+00  1.0E-07
  8.750E-03  5.83057E-09  5.43771E-16  1.94184E+01  0.00000E+00  1.0E-07
  9.000E-03  6.16850E-09  5.43768E-16  1.94183E+01  0.00000E+00  1.0E-07
  9.250E-03  6.51596E-09  5.43766E-16  1.94182E+01  0.00000E+00  1.0E-07
  9.500E-03  6.87293E-09  5.43763E-16  1.94181E+01  0.00000E+00  1.0E-07
  9.750E-03  7.23942E-09  5.43761E-16  1.94181E+01  0.00000E+00  1.0E-07
  1.000E-02  7.61544E-09  5.43758E-16  1.94180E+01  0.00000E+00  1.0E-07
  1.250E-02  1.18991E-08  5.43729E-16  1.94169E+01  0.00000E+00  1.0E-07
  1.500E-02  1.71347E-08  5.43693E-16  1.94156E+01  0.00000E+00  1.0E-07
  1.750E-02  2.33223E-08  5.43650E-16  1.94141E+01  0.00000E+00  1.0E-07
  2.000E-02  3.04617E-08  5.43601E-16  1.94123E+01  0.00000E+00  1.0E-07
  2.250E-02  3.85531E-08  5.43545E-16  1.94103E+01  0.00000E+00  1.0E-07
  2.500E-02  4.75965E-08  5.43483E-16  1.94081E+01  0.00000E+00  1.0E-07
  2.750E-02  5.75917E-08  5.43414E-16  1.94057E+01  0.00000E+00  1.0E-07
  3.000E-02  6.85389E-08  5.43338E-16  1.94030E+01  0.00000E+00  1.0E-07
  3.250E-02  8.04380E-08  5.43256E-16  1.94000E+01  0.00000E+00  1.0E-07
  3.500E-02  9.32891E-08  5.43168E-16  1.93969E+01  0.00000E+00  1.0E-07
  3.750E-02  1.07092E-07  5.43073E-16  1.93935E+01  0.00000E+00  1.0E-07
  4.000E-02  1.21847E-07  5.42971E-16  1.93899E+01  0.00000E+00  1.0E-07
  4.250E-02  1.37554E-07  5.42863E-16  1.93860E+01  0.00000E+00  1.0E-07
  4.500E-02  1.54213E-07  5.42748E-16  1.93819E+01  0.00000E+00  1.0E-07
  4.750E-02  1.71823E-07  5.42627E-16  1.93776E+01  0.00000E+00  1.0E-07
  5.000E-02  1.90386E-07  5.42500E-16  1.93730E+01  0.00000E+00  1.0E-07
  5.250E-02  2.09900E-07  5.42366E-16  1.93682E+01  0.00000E+00  1.0E-07
  5.500E-02  2.30367E-07  5.42225E-16  1.93632E+01  0.00000E+00  1.0E-07
  5.750E-02  2.51785E-07  5.42078E-16  1.93580E+01  0.00000E+00  1.0E-07
  6.000E-02  2.74156E-07  5.41924E-16  1.93525E+01  0.00000E+00  1.0E-07
  6.250E-02  2.97478E-07  5.41764E-16  1.93468E+01  0.00000E+00  1.0E-07
  6.500E-02  3.21752E-07  5.41598E-16  1.93408E+01  0.00000E+00  1.0E-07
  6.750E-02  3.46978E-07  5.41425E-16  1.93346E+01  0.00000E+00  1.0E-07
  7.000E-02  3.73156E-07  5.41245E-16  1.93282E+01  0.00000E+00  1.0E-07
  7.250E-02  4.00286E-07  5.41060E-16  1.93216E+01  0.00000E+00  1.0E-07
  7.500E-02  4.28368E-07  5.40867E-16  1.93147E+01  0.00000E+00  1.0E-07
  7.750E-02  4.57402E-07  5.40669E-16  1.93076E+01  0.00000E+00  1.0E-07
  8.000E-02  4.87388E-07  5.40464E-16  1.93003E+01  0.00000E+00  1.0E-07
  8.250E-02  5.18325E-07  5.40252E-16  1.92928E+01  0.00000E+00  1.0E-07
  8.500E-02  5.50215E-07  5.40034E-16  1.92850E+01  0.00000E+00  1.0E-07
  8.750E-02  5.83057E-07  5.39810E-16  1.92770E+01  0.00000E+00  1.0E-07
  9.000E-02  6.16850E-07  5.39580E-16  1.92687E+01  0.00000E+00  1.0E-07
  9.250E-02  6.51596E-07  5.39343E-16  1.92603E+01  0.00000E+00  1.0E-07
  9.500E-02  6.87293E-07  5.39099E-16  1.92516E+01  0.00000E+00  1.0E-07
  9.750E-02  7.23942E-07  5.38850E-16  1.92427E+01  0.00000E+00  1.0E-07
  1.000E-01  7.61543E-07  5.38594E-16  1.92335E+01  0.00000E+00  1.0E-07
  1.250E-01  1.18991E-06  5.35691E-16  1.91299E+01  0.00000E+00  1.0E-07
  1.500E-01  1.71347E-06  5.32175E-16  1.90043E+01  0.00000E+00  1.0E-07
  1.750E-01  2.33223E-06  5.28062E-16  1.88574E+01  0.00000E+00  1.0E-07
  2.000E-01  3.04617E-06  5.23374E-16  1.86900E+01  0.00000E+00  1.0E-07
  2.250E-01  3.85531E-06  5.18134E-16  1.85029E+01  0.00000E+00  1.0E-07
  2.500E-01  4.75964E-06  5.12367E-16  1.82970E+01  0.00000E+00  1.0E-07
  2.750E-01  5.75916E-06  5.06101E-16  1.80732E+01  0.00000E+00  1.0E-07
  3.000E-01  6.85388E-06  4.99366E-16  1.78327E+01  0.00000E+00  1.0E-07
  3.250E-01  8.04378E-06  4.92193E-16  1.75765E+01  0.00000E+00  1.0E-07
  3.500E-01  9.32888E-06  4.84613E-16  1.73058E+01  0.00000E+00  1.0E-07
  3.750E-01  1.07092E-05  4.76659E-16  1.70218E+01  0.00000E+00  1.0E-07
  4.000E-01  1.21846E-05  4.68364E-16  1.67256E+01  0.00000E+00  1.0E-07
  4.250E-01  1.37553E-05  4.59764E-16  1.64185E+01  0.00000E+00  1.0E-07
  4.500E-01  1.54212E-05  4.50891E-16  1.61016E+01  0.00000E+00  1.0E-07
  4.750E-01  1.71822E-05  4.41779E-16  1.57762E+01  0.00000E+00  1.0E-07
  5.000E-01  1.90385E-05  4.32461E-16  1.54435E+01  0.00000E+00  1.0E-07
  5.250E-01  2.09899E-05  4.22970E-16  1.51045E+01  0.00000E+00  1.0E-07
  5.500E-01  2.30365E-05  4.13338E-16  1.47606E+01  0.00000E+00  1.0E-07
  5.750E-01  2.51783E-05  4.03595E-16  1.44126E+01  0.00000E+00  1.0E-07
  6.000E-01  2.74153E-05  3.93770E-16  1.40618E+01  0.00000E+00  1.0E-07
  6.250E-01  2.97475E-05  3.83892E-16  1.37090E+01  0.00000E+00  1.0E-07
  6.500E-01  3.21749E-05  3.73989E-16  1.33554E+01  0.00000E+00  1.0E-07
  6.750E-01  3.46974E-05  3.64084E-16  1.30017E+01  0.00000E+00  1.0E-07
  7.000E-01  3.73152E-05  3.54202E-16  1.26488E+01  0.00000E+00  1.0E-07
  7.250E-01  4.00281E-05  3.44365E-16  1.22975E+01  0.00000E+00  1.0E-07
  7.500E-01  4.28362E-05  3.34594E-16  1.19486E+01  0.00000E+00  1.0E-07
  7.750E-01  4.57395E-05  3.24908E-16  1.16027E+01  0.00000E+00  1.0E-07
  8.000E-01  4.87380E-05  3.15324E-16  1.12604E+01  0.00000E+00  1.0E-07
  8.250E-01  5.18317E-05  3.05857E-16  1.09224E+01  0.00000E+00  1.0E-07
  8.500E-01  5.50205E-05  2.96524E-16  1.05890E+01  0.00000E+00  1.0E-07
  8.750E-01  5.83045E-05  2.87335E-16  1.02609E+01  0.00000E+00  1.0E-07
  9.000E-01  6.16838E-05  2.78303E-16  9.93836E+00  0.00000E+00  1.0E-07
  9.250E-01  6.51582E-05  2.69437E-16  9.62176E+00  0.00000E+00  1.0E-07
  9.500E-01  6.87277E-05  2.60746E-16  9.31140E+00  0.00000E+00  1.0E-07
  9.750E-01  7.23925E-05  2.52237E-16  9.00756E+00  0.00000E+00  1.0E-07
  1.000E+00  7.61524E-05  2.43917E-16  8.71044E+00  0.00000E+00  1.0E-07
  1.100E+00  9.21439E-05  2.12607E-16  7.59235E+00  0.00000E+00  1.0E-07
  1.200E+00  1.09658E-04  1.84545E-16  6.59021E+00  0.00000E+00  1.0E-07
  1.300E+00  1.28695E-04  1.59705E-16  5.70317E+00  0.00000E+00  1.0E-07
  1.400E+00  1.49255E-04  1.37933E-16  4.92569E+00  0.00000E+00  1.0E-07
  1.500E+00  1.71338E-04  1.18996E-16  4.24943E+00  0.00000E+00  1.0E-07
  1.600E+00  1.94942E-04  1.02619E-16  3.66461E+00  0.00000E+00  1.0E-07
  1.700E+00  2.20070E-04  8.85181E-17  3.16104E+00  0.00000E+00  1.0E-07
  1.800E+00  2.46720E-04  7.64132E-17  2.72876E+00  0.00000E+00  1.0E-07
  1.900E+00  2.74892E-04  6.60431E-17  2.35844E+00  0.00000E+00  1.0E-07
  2.000E+00  3.04586E-04  5.71698E-17  2.04157E+00  0.00000E+00  1.0E-07
  2.100E+00  3.35803E-04  4.95809E-17  1.77056E+00  0.00000E+00  1.0E-07
  2.200E+00  3.68542E-04  4.30897E-17  1.53876E+00  0.00000E+00  1.0E-07
  2.300E+00  4.02802E-04  3.75343E-17  1.34038E+00  0.00000E+00  1.0E-07
  2.400E+00  4.38585E-04  3.27750E-17  1.17042E+00  0.00000E+00  1.0E-07
  2.500E+00  4.75889E-04  2.86923E-17  1.02462E+00  0.00000E+00  1.0E-07
  2.600E+00  5.14715E-04  2.51844E-17  8.99352E-01  0.00000E+00  1.0E-07
  2.700E+00  5.55063E-04  2.21650E-17  7.91525E-01  0.00000E+00  1.0E-07
  2.800E+00  5.96931E-04  1.95607E-17  6.98527E-01  0.00000E+00  1.0E-07
  2.900E+00  6.40321E-04  1.73098E-17  6.18146E-01  0.00000E+00  1.0E-07
  3.000E+00  6.85233E-04  1.53599E-17  5.48514E-01  0.00000E+00  1.0E-07
  3.100E+00  7.31665E-04  1.36669E-17  4.88052E-01  0.00000E+00  1.0E-07
  3.200E+00  7.79618E-04  1.21932E-17  4.35427E-01  0.00000E+00  1.0E-07
  3.300E+00  8.29092E-04  1.09074E-17  3.89511E-01  0.00000E+00  1.0E-07
  3.400E+00  8.80086E-04  9.78279E-18  3.49350E-01  0.00000E+00  1.0E-07
  3.500E+00  9.32601E-04  8.79665E-18  3.14134E-01  0.00000E+00  1.0E-07
  3.600E+00  9.86636E-04  7.92980E-18  2.83178E-01  0.00000E+00  1.0E-07
  3.700E+00  1.04219E-03  7.16590E-18  2.55899E-01  0.00000E+00  1.0E-07
  3.800E+00  1.09927E-03  6.49108E-18  2.31801E-01  0.00000E+00  1.0E-07
  3.900E+00  1.15786E-03  5.89348E-18  2.10460E-01  0.00000E+00  1.0E-07
  4.000E+00  1.21797E-03  5.36299E-18  1.91516E-01  0.00000E+00  1.0E-07
  4.100E+00  1.27961E-03  4.89095E-18  1.74659E-01  0.00000E+00  1.0E-07
  4.200E+00  1.34276E-03  4.46993E-18  1.59624E-01  0.00000E+00  1.0E-07
  4.300E+00  1.40743E-03  4.09356E-18  1.46184E-01  0.00000E+00  1.0E-07
  4.400E+00  1.47362E-03  3.75635E-18  1.34142E-01  0.00000E+00  1.0E-07
  4.500E+00  1.54133E-03  3.45354E-18  1.23328E-01  0.00000E+00  1.0E-07
  4.600E+00  1.61056E-03  3.18104E-18  1.13597E-01  0.00000E+00  1.0E-07
  4.700E+00  1.68131E-03  2.93531E-18  1.04822E-01  0.00000E+00  1.0E-07
  4.800E+00  1.75357E-03  2.71325E-18  9.68917E-02  0.00000E+00  1.0E-07
  4.900E+00  1.82735E-03  2.51217E-18  8.97114E-02  0.00000E+00  1.0E-07
  5.000E+00  1.90265E-03  2.32975E-18  8.31971E-02  0.00000E+00  1.0E-07
  5.100E+00  1.97947E-03  2.16394E-18  7.72757E-02  0.00000E+00  1.0E-07
  5.200E+00  2.05780E-03  2.01294E-18  7.18834E-02  0.00000E+00  1.0E-07
  5.300E+00  2.13765E-03  1.87518E-18  6.69639E-02  0.00000E+00  1.0E-07
  5.400E+00  2.21902E-03  1.74928E-18  6.24681E-02  0.00000E+00  1.0E-07
  5.500E+00  2.30190E-03  1.63403E-18  5.83523E-02  0.00000E+00  1.0E-07
  5.600E+00  2.38630E-03  1.52835E-18  5.45783E-02  0.00000E+00  1.0E-07
  5.700E+00  2.47222E-03  1.43128E-18  5.11121E-02  0.00000E+00  1.0E-07
  5.800E+00  2.55965E-03  1.34200E-18  4.79236E-02 -7.82664E-06  1.0E-07
  5.900E+00  2.64859E-03  1.25974E-18  4.49862E-02 -8.45302E-06  1.0E-07
  6.000E+00  2.73905E-03  1.18385E-18  4.22762E-02 -9.10306E-06  1.0E-07
  6.100E+00  2.83103E-03  1.11374E-18  3.97723E-02 -9.77703E-06  1.0E-07
  6.200E+00  2.92452E-03  1.04887E-18  3.74558E-02 -1.04752E-05  1.0E-07
  6.300E+00  3.01952E-03  9.88771E-19  3.53096E-02 -1.11977E-05  1.0E-07
  6.400E+00  3.11604E-03  9.33022E-19  3.33188E-02 -1.19450E-05  1.0E-07
  6.500E+00  3.21407E-03  8.81244E-19  3.14698E-02 -1.27173E-05  1.0E-07
  6.600E+00  3.31362E-03  8.33093E-19  2.97503E-02 -1.35148E-05  1.0E-07
  6.700E+00  3.41468E-03  7.88264E-19  2.81494E-02 -1.43379E-05  1.0E-07
  6.800E+00  3.51725E-03  7.46479E-19  2.66573E-02 -1.51869E-05  1.0E-07
  6.900E+00  3.62133E-03  7.07489E-19  2.52649E-02 -1.60620E-05  1.0E-07
  7.000E+00  3.72692E-03  6.71067E-19  2.39642E-02 -1.69635E-05  1.0E-07
  7.100E+00  3.83403E-03  6.37008E-19  2.27480E-02 -1.78917E-05  1.0E-07
  7.200E+00  3.94265E-03  6.05128E-19  2.16095E-02 -1.88471E-05  1.0E-07
  7.300E+00  4.05278E-03  5.75257E-19  2.05428E-02 -1.98298E-05  1.0E-07
  7.400E+00  4.16442E-03  5.47242E-19  1.95424E-02 -2.08401E-05  1.0E-07
  7.500E+00  4.27757E-03  5.20944E-19  1.86032E-02 -2.18785E-05  1.0E-07
  7.600E+00  4.39223E-03  4.96234E-19  1.77208E-02 -2.29452E-05  1.0E-07
  7.700E+00  4.50840E-03  4.72998E-19  1.68911E-02 -2.40404E-05  1.0E-07
  7.800E+00  4.62608E-03  4.51128E-19  1.61101E-02 -2.51647E-05  1.0E-07
  7.900E+00  4.74527E-03  4.30527E-19  1.53744E-02 -2.63181E-05  1.0E-07
  8.000E+00  4.86597E-03  4.11107E-19  1.46809E-02 -2.75012E-05  1.0E-07
  8.100E+00  4.98817E-03  3.92785E-19  1.40266E-02 -2.87141E-05  1.0E-07
  8.200E+00  5.11188E-03  3.75486E-19  1.34088E-02 -2.99572E-05  1.0E-07
  8.300E+00  5.23711E-03  3.59141E-19  1.28252E-02 -3.12308E-05  1.0E-07
  8.400E+00  5.36383E-03  3.43687E-19  1.22733E-02 -3.25352E-05  1.0E-07
  8.500E+00  5.49207E-03  3.29064E-19  1.17511E-02 -3.38708E-05  1.0E-07
  8.600E+00  5.62181E-03  3.15219E-19  1.12567E-02 -3.52379E-05  1.0E-07
  8.700E+00  5.75306E-03  3.02102E-19  1.07883E-02 -3.66367E-05  1.0E-07
  8.800E+00  5.88581E-03  2.89667E-19  1.03442E-02 -3.80675E-05  1.0E-07
  8.900E+00  6.02007E-03  2.77870E-19  9.92293E-03 -3.95307E-05  1.0E-07
  9.000E+00  6.15583E-03  2.66673E-19  9.52307E-03 -4.10266E-05  1.0E-07
  9.100E+00  6.29310E-03  2.56038E-19  9.14330E-03 -4.25555E-05  1.0E-07
  9.200E+00  6.43187E-03  2.45932E-19  8.78240E-03 -4.41176E-05  1.0E-07
  9.300E+00  6.57214E-03  2.36323E-19  8.43924E-03 -4.57133E-05  1.0E-07
  9.400E+00  6.71392E-03  2.27181E-19  8.11277E-03 -4.73428E-05  1.0E-07
  9.500E+00  6.85720E-03  2.18479E-19  7.80202E-03 -4.90064E-05  1.0E-07
  9.600E+00  7.00198E-03  2.10191E-19  7.50607E-03 -5.07044E-05  1.0E-07
  9.700E+00  7.14827E-03  2.02295E-19  7.22407E-03 -5.24372E-05  1.0E-07
  9.800E+00  7.29605E-03  1.94767E-19  6.95524E-03 -5.42049E-05  1.0E-07
  9.900E+00  7.44534E-03  1.87587E-19  6.69884E-03 -5.60080E-05  1.0E-07
  1.000E+01  7.59612E-03  1.80735E-19  6.45417E-03 -5.78465E-05  1.0E-07
  1.025E+01  7.97965E-03  1.64929E-19  5.88972E-03 -6.26001E-05  1.0E-07
  1.050E+01  8.37255E-03  1.50815E-19  5.38570E-03 -6.75816E-05  1.0E-07
  1.075E+01  8.77480E-03  1.38179E-19  4.93445E-03 -7.27951E-05  1.0E-07
  1.100E+01  9.18641E-03  1.26838E-19  4.52945E-03 -7.82443E-05  1.0E-07
  1.125E+01  9.60736E-03  1.16634E-19  4.16509E-03 -8.39331E-05  1.0E-07
  1.150E+01  1.00376E-02  1.07435E-19  3.83656E-03 -8.98651E-05  1.0E-07
  1.175E+01  1.04773E-02  9.91217E-20  3.53970E-03 -9.60437E-05  1.0E-07
  1.200E+01  1.09262E-02  9.15948E-20  3.27091E-03 -1.02473E-04  1.0E-07
  1.225E+01  1.13844E-02  8.47663E-20  3.02706E-03 -1.09155E-04  1.0E-07
  1.250E+01  1.18520E-02  7.85597E-20  2.80542E-03 -1.16093E-04  1.0E-07
  1.275E+01  1.23288E-02  7.29084E-20  2.60361E-03 -1.23292E-04  1.0E-07
  1.300E+01  1.28150E-02  6.77538E-20  2.41953E-03 -1.30752E-04  1.0E-07
  1.325E+01  1.33104E-02  6.30446E-20  2.25136E-03 -1.38478E-04  1.0E-07
  1.350E+01  1.38150E-02  5.87354E-20  2.09748E-03 -1.46471E-04  1.0E-07
  1.375E+01  1.43290E-02  5.47862E-20  1.95645E-03 -1.54735E-04  1.0E-07
  1.400E+01  1.48521E-02  5.11616E-20  1.82702E-03 -1.63272E-04  1.0E-07
  1.425E+01  1.53845E-02  4.78303E-20  1.70805E-03 -1.72085E-04  1.0E-07
  1.450E+01  1.59262E-02  4.47643E-20  1.59856E-03 -1.81174E-04  1.0E-07
  1.475E+01  1.64770E-02  4.19387E-20  1.49766E-03 -1.90544E-04  1.0E-07
