 #
 # Subroutine ELSEPA. Elastic scattering of electrons and positrons
 #                    by neutral atoms and positive ions
 #
 # Projectile: electron
 # Kinetic energy = 2.00000E+03 eV = 7.34986E+01 a.u.
 #
 # Element:  O,  Z =   8,  atomic weight = 1.59994E+01 g/mol
 #
 # Nuclear model: Fermi distribution
 #                Average radius = 2.69620E-13 cm
 #                Skin thickness = 5.46000E-14 cm
 #
 # Number of electrons =  8
 #
 # Electron density: Read from file ./database/z_008.den                                                                                                    
 #                   Number of data points =  681
 #                   Volume integral = 8.00000E+00
 #
 # Furness-McCarthy exchange potential
 #
 # No absorption potential
 #
 # No correlation-polarization potential
 #
 # Integrated cross sections:
 # Total elastic cross section = 3.06807E-17 cm**2 = 1.09563E+00 a0**2
 # 1st transport cross section = 1.91578E-18 cm**2 = 6.84139E-02 a0**2
 # 2nd transport cross section = 4.14148E-18 cm**2 = 1.47895E-01 a0**2
 #
 #
 # Differential cross section:                       MU=(1-COS(THETA))/2
 #
 #  THETA        MU          DCS          DCS        Sherman      error
 #  (deg)                 (cm**2/sr)   (a0**2/sr)    function
 #----------------------------------------------------------------------
  0.000E+00  0.00000E+00  3.54251E-16  1.26505E+01  0.00000E+00  1.0E-07
  1.000E-04  7.61557E-13  3.54251E-16  1.26505E+01  2.18835E-10  1.0E-07
  1.250E-04  1.18994E-12  3.54251E-16  1.26505E+01  2.73544E-10  1.0E-07
  1.500E-04  1.71346E-12  3.54251E-16  1.26505E+01  3.28252E-10  1.0E-07
  1.750E-04  2.33225E-12  3.54251E-16  1.26505E+01  3.82961E-10  1.0E-07
  2.000E-04  3.04617E-12  3.54251E-16  1.26505E+01  4.37670E-10  1.0E-07
  2.250E-04  3.85530E-12  3.54251E-16  1.26505E+01  4.92379E-10  1.0E-07
  2.500E-04  4.75964E-12  3.54251E-16  1.26505E+01  5.47087E-10  1.0E-07
  2.750E-04  5.75917E-12  3.54251E-16  1.26505E+01  6.01796E-10  1.0E-07
  3.000E-04  6.85391E-12  3.54251E-16  1.26505E+01  6.56505E-10  1.0E-07
  3.250E-04  8.04379E-12  3.54251E-16  1.26505E+01  7.11214E-10  1.0E-07
  3.500E-04  9.32893E-12  3.54251E-16  1.26505E+01  7.65922E-10  1.0E-07
  3.750E-04  1.07092E-11  3.54251E-16  1.26505E+01  8.20631E-10  1.0E-07
  4.000E-04  1.21847E-11  3.54251E-16  1.26505E+01  8.75340E-10  1.0E-07
  4.250E-04  1.37554E-11  3.54251E-16  1.26505E+01  9.30049E-10  1.0E-07
  4.500E-04  1.54213E-11  3.54251E-16  1.26505E+01  9.84757E-10  1.0E-07
  4.750E-04  1.71823E-11  3.54251E-16  1.26505E+01  1.03947E-09  1.0E-07
  5.000E-04  1.90386E-11  3.54251E-16  1.26505E+01  1.09417E-09  1.0E-07
  5.250E-04  2.09900E-11  3.54251E-16  1.26505E+01  1.14888E-09  1.0E-07
  5.500E-04  2.30367E-11  3.54251E-16  1.26505E+01  1.20359E-09  1.0E-07
  5.750E-04  2.51785E-11  3.54251E-16  1.26505E+01  1.25830E-09  1.0E-07
  6.000E-04  2.74156E-11  3.54251E-16  1.26505E+01  1.31301E-09  1.0E-07
  6.250E-04  2.97478E-11  3.54251E-16  1.26505E+01  1.36772E-09  1.0E-07
  6.500E-04  3.21752E-11  3.54251E-16  1.26505E+01  1.42243E-09  1.0E-07
  6.750E-04  3.46979E-11  3.54251E-16  1.26505E+01  1.47714E-09  1.0E-07
  7.000E-04  3.73157E-11  3.54251E-16  1.26505E+01  1.53184E-09  1.0E-07
  7.250E-04  4.00286E-11  3.54251E-16  1.26505E+01  1.58655E-09  1.0E-07
  7.500E-04  4.28368E-11  3.54251E-16  1.26505E+01  1.64126E-09  1.0E-07
  7.750E-04  4.57402E-11  3.54251E-16  1.26505E+01  1.69597E-09  1.0E-07
  8.000E-04  4.87388E-11  3.54251E-16  1.26505E+01  1.75068E-09  1.0E-07
  8.250E-04  5.18325E-11  3.54251E-16  1.26505E+01  1.80539E-09  1.0E-07
  8.500E-04  5.50215E-11  3.54251E-16  1.26505E+01  1.86010E-09  1.0E-07
  8.750E-04  5.83057E-11  3.54251E-16  1.26505E+01  1.91481E-09  1.0E-07
  9.000E-04  6.16850E-11  3.54251E-16  1.26505E+01  1.96951E-09  1.0E-07
  9.250E-04  6.51595E-11  3.54251E-16  1.26505E+01  2.02422E-09  1.0E-07
  9.500E-04  6.87293E-11  3.54251E-16  1.26505E+01  2.07893E-09  1.0E-07
  9.750E-04  7.23943E-11  3.54251E-16  1.26505E+01  2.13364E-09  1.0E-07
  1.000E-03  7.61544E-11  3.54251E-16  1.26505E+01  2.18835E-09  1.0E-07
  1.250E-03  1.18991E-10  3.54251E-16  1.26505E+01  2.73544E-09  1.0E-07
  1.500E-03  1.71347E-10  3.54251E-16  1.26505E+01  3.28252E-09  1.0E-07
  1.750E-03  2.33223E-10  3.54251E-16  1.26505E+01  3.82961E-09  1.0E-07
  2.000E-03  3.04617E-10  3.54251E-16  1.26505E+01  4.37670E-09  1.0E-07
  2.250E-03  3.85531E-10  3.54251E-16  1.26505E+01  4.92379E-09  1.0E-07
  2.500E-03  4.75965E-10  3.54251E-16  1.26505E+01  5.47087E-09  1.0E-07
  2.750E-03  5.75917E-10  3.54251E-16  1.26505E+01  6.01796E-09  1.0E-07
  3.000E-03  6.85389E-10  3.54251E-16  1.26505E+01  6.56505E-09  1.0E-07
  3.250E-03  8.04380E-10  3.54251E-16  1.26505E+01  7.11214E-09  1.0E-07
  3.500E-03  9.32891E-10  3.54251E-16  1.26505E+01  7.65923E-09  1.0E-07
  3.750E-03  1.07092E-09  3.54251E-16  1.26505E+01  8.20631E-09  1.0E-07
  4.000E-03  1.21847E-09  3.54251E-16  1.26505E+01  8.75340E-09  1.0E-07
  4.250E-03  1.37554E-09  3.54251E-16  1.26505E+01  9.30049E-09  1.0E-07
  4.500E-03  1.54213E-09  3.54251E-16  1.26505E+01  9.84758E-09  1.0E-07
  4.750E-03  1.71823E-09  3.54251E-16  1.26505E+01  1.03947E-08  1.0E-07
  5.000E-03  1.90386E-09  3.54251E-16  1.26505E+01  1.09418E-08  1.0E-07
  5.250E-03  2.09900E-09  3.54251E-16  1.26505E+01  1.14888E-08  1.0E-07
  5.500E-03  2.30367E-09  3.54251E-16  1.26505E+01  1.20359E-08  1.0E-07
  5.750E-03  2.51785E-09  3.54251E-16  1.26505E+01  1.25830E-08  1.0E-07
  6.000E-03  2.74156E-09  3.54251E-16  1.26505E+01  1.31301E-08  1.0E-07
  6.250E-03  2.97478E-09  3.54251E-16  1.26505E+01  1.36772E-08  1.0E-07
  6.500E-03  3.21752E-09  3.54251E-16  1.26505E+01  1.42243E-08  1.0E-07
  6.750E-03  3.46978E-09  3.54251E-16  1.26505E+01  1.47714E-08  1.0E-07
  7.000E-03  3.73156E-09  3.54251E-16  1.26505E+01  1.53185E-08  1.0E-07
  7.250E-03  4.00286E-09  3.54251E-16  1.26505E+01  1.58655E-08  1.0E-07
  7.500E-03  4.28368E-09  3.54251E-16  1.26505E+01  1.64126E-08  1.0E-07
  7.750E-03  4.57402E-09  3.54251E-16  1.26505E+01  1.69597E-08  1.0E-07
  8.000E-03  4.87388E-09  3.54251E-16  1.26505E+01  1.75068E-08  1.0E-07
  8.250E-03  5.18326E-09  3.54251E-16  1.26505E+01  1.80539E-08  1.0E-07
  8.500E-03  5.50215E-09  3.54251E-16  1.26505E+01  1.86010E-08  1.0E-07
  8.750E-03  5.83057E-09  3.54251E-16  1.26505E+01  1.91481E-08  1.0E-07
  9.000E-03  6.16850E-09  3.54251E-16  1.26505E+01  1.96952E-08  1.0E-07
  9.250E-03  6.51596E-09  3.54251E-16  1.26505E+01  2.02422E-08  1.0E-07
  9.500E-03  6.87293E-09  3.54251E-16  1.26505E+01  2.07893E-08  1.0E-07
  9.750E-03  7.23942E-09  3.54250E-16  1.26505E+01  2.13364E-08  1.0E-07
  1.000E-02  7.61544E-09  3.54250E-16  1.26505E+01  2.18835E-08  1.0E-07
  1.250E-02  1.18991E-08  3.54250E-16  1.26505E+01  2.73544E-08  1.0E-07
  1.500E-02  1.71347E-08  3.54250E-16  1.26505E+01  3.28253E-08  1.0E-07
  1.750E-02  2.33223E-08  3.54249E-16  1.26505E+01  3.82962E-08  1.0E-07
  2.000E-02  3.04617E-08  3.54248E-16  1.26504E+01  4.37671E-08  1.0E-07
  2.250E-02  3.85531E-08  3.54247E-16  1.26504E+01  4.92381E-08  1.0E-07
  2.500E-02  4.75965E-08  3.54247E-16  1.26504E+01  5.47090E-08  1.0E-07
  2.750E-02  5.75917E-08  3.54246E-16  1.26503E+01  6.01800E-08  1.0E-07
  3.000E-02  6.85389E-08  3.54245E-16  1.26503E+01  6.56509E-08  1.0E-07
  3.250E-02  8.04380E-08  3.54243E-16  1.26503E+01  7.11219E-08  1.0E-07
  3.500E-02  9.32891E-08  3.54242E-16  1.26502E+01  7.65929E-08  1.0E-07
  3.750E-02  1.07092E-07  3.54241E-16  1.26502E+01  8.20640E-08  1.0E-07
  4.000E-02  1.21847E-07  3.54239E-16  1.26501E+01  8.75350E-08  1.0E-07
  4.250E-02  1.37554E-07  3.54238E-16  1.26501E+01  9.30061E-08  1.0E-07
  4.500E-02  1.54213E-07  3.54236E-16  1.26500E+01  9.84772E-08  1.0E-07
  4.750E-02  1.71823E-07  3.54235E-16  1.26499E+01  1.03948E-07  1.0E-07
  5.000E-02  1.90386E-07  3.54233E-16  1.26499E+01  1.09420E-07  1.0E-07
  5.250E-02  2.09900E-07  3.54231E-16  1.26498E+01  1.14891E-07  1.0E-07
  5.500E-02  2.30367E-07  3.54229E-16  1.26497E+01  1.20362E-07  1.0E-07
  5.750E-02  2.51785E-07  3.54227E-16  1.26497E+01  1.25833E-07  1.0E-07
  6.000E-02  2.74156E-07  3.54225E-16  1.26496E+01  1.31305E-07  1.0E-07
  6.250E-02  2.97478E-07  3.54223E-16  1.26495E+01  1.36776E-07  1.0E-07
  6.500E-02  3.21752E-07  3.54220E-16  1.26494E+01  1.42247E-07  1.0E-07
  6.750E-02  3.46978E-07  3.54218E-16  1.26493E+01  1.47719E-07  1.0E-07
  7.000E-02  3.73156E-07  3.54215E-16  1.26493E+01  1.53190E-07  1.0E-07
  7.250E-02  4.00286E-07  3.54213E-16  1.26492E+01  1.58662E-07  1.0E-07
  7.500E-02  4.28368E-07  3.54210E-16  1.26491E+01  1.64133E-07  1.0E-07
  7.750E-02  4.57402E-07  3.54207E-16  1.26490E+01  1.69605E-07  1.0E-07
  8.000E-02  4.87388E-07  3.54204E-16  1.26489E+01  1.75076E-07  1.0E-07
  8.250E-02  5.18325E-07  3.54201E-16  1.26488E+01  1.80548E-07  1.0E-07
  8.500E-02  5.50215E-07  3.54198E-16  1.26487E+01  1.86020E-07  1.0E-07
  8.750E-02  5.83057E-07  3.54195E-16  1.26485E+01  1.91492E-07  1.0E-07
  9.000E-02  6.16850E-07  3.54192E-16  1.26484E+01  1.96963E-07  1.0E-07
  9.250E-02  6.51596E-07  3.54189E-16  1.26483E+01  2.02435E-07  1.0E-07
  9.500E-02  6.87293E-07  3.54185E-16  1.26482E+01  2.07907E-07  1.0E-07
  9.750E-02  7.23942E-07  3.54182E-16  1.26481E+01  2.13379E-07  1.0E-07
  1.000E-01  7.61543E-07  3.54178E-16  1.26479E+01  2.18851E-07  1.0E-07
  1.250E-01  1.18991E-06  3.54137E-16  1.26465E+01  2.73576E-07  1.0E-07
  1.500E-01  1.71347E-06  3.54087E-16  1.26447E+01  3.28307E-07  1.0E-07
  1.750E-01  2.33223E-06  3.54027E-16  1.26425E+01  3.83049E-07  1.0E-07
  2.000E-01  3.04617E-06  3.53959E-16  1.26401E+01  4.37800E-07  1.0E-07
  2.250E-01  3.85531E-06  3.53881E-16  1.26373E+01  4.92564E-07  1.0E-07
  2.500E-01  4.75964E-06  3.53795E-16  1.26342E+01  5.47342E-07  1.0E-07
  2.750E-01  5.75916E-06  3.53699E-16  1.26308E+01  6.02135E-07  1.0E-07
  3.000E-01  6.85388E-06  3.53594E-16  1.26271E+01  6.56945E-07  1.0E-07
  3.250E-01  8.04378E-06  3.53480E-16  1.26230E+01  7.11773E-07  1.0E-07
  3.500E-01  9.32888E-06  3.53357E-16  1.26186E+01  7.66621E-07  1.0E-07
  3.750E-01  1.07092E-05  3.53225E-16  1.26139E+01  8.21490E-07  1.0E-07
  4.000E-01  1.21846E-05  3.53084E-16  1.26089E+01  8.76382E-07  1.0E-07
  4.250E-01  1.37553E-05  3.52934E-16  1.26035E+01  9.31299E-07  1.0E-07
  4.500E-01  1.54212E-05  3.52775E-16  1.25978E+01  9.86241E-07  1.0E-07
  4.750E-01  1.71822E-05  3.52607E-16  1.25918E+01  1.04121E-06  1.0E-07
  5.000E-01  1.90385E-05  3.52430E-16  1.25855E+01  1.09621E-06  1.0E-07
  5.250E-01  2.09899E-05  3.52244E-16  1.25789E+01  1.15124E-06  1.0E-07
  5.500E-01  2.30365E-05  3.52050E-16  1.25719E+01  1.20630E-06  1.0E-07
  5.750E-01  2.51783E-05  3.51846E-16  1.25646E+01  1.26140E-06  1.0E-07
  6.000E-01  2.74153E-05  3.51633E-16  1.25571E+01  1.31653E-06  1.0E-07
  6.250E-01  2.97475E-05  3.51412E-16  1.25491E+01  1.37169E-06  1.0E-07
  6.500E-01  3.21749E-05  3.51182E-16  1.25409E+01  1.42690E-06  1.0E-07
  6.750E-01  3.46974E-05  3.50943E-16  1.25324E+01  1.48214E-06  1.0E-07
  7.000E-01  3.73152E-05  3.50695E-16  1.25235E+01  1.53743E-06  1.0E-07
  7.250E-01  4.00281E-05  3.50438E-16  1.25144E+01  1.59275E-06  1.0E-07
  7.500E-01  4.28362E-05  3.50173E-16  1.25049E+01  1.64813E-06  1.0E-07
  7.750E-01  4.57395E-05  3.49899E-16  1.24951E+01  1.70354E-06  1.0E-07
  8.000E-01  4.87380E-05  3.49616E-16  1.24850E+01  1.75901E-06  1.0E-07
  8.250E-01  5.18317E-05  3.49325E-16  1.24746E+01  1.81452E-06  1.0E-07
  8.500E-01  5.50205E-05  3.49025E-16  1.24639E+01  1.87008E-06  1.0E-07
  8.750E-01  5.83045E-05  3.48717E-16  1.24529E+01  1.92570E-06  1.0E-07
  9.000E-01  6.16838E-05  3.48400E-16  1.24416E+01  1.98137E-06  1.0E-07
  9.250E-01  6.51582E-05  3.48075E-16  1.24300E+01  2.03709E-06  1.0E-07
  9.500E-01  6.87277E-05  3.47741E-16  1.24180E+01  2.09287E-06  1.0E-07
  9.750E-01  7.23925E-05  3.47398E-16  1.24058E+01  2.14870E-06  1.0E-07
  1.000E+00  7.61524E-05  3.47048E-16  1.23933E+01  2.20460E-06  1.0E-07
  1.100E+00  9.21439E-05  3.45562E-16  1.23402E+01  2.42880E-06  1.0E-07
  1.200E+00  1.09658E-04  3.43945E-16  1.22825E+01  2.65406E-06  1.0E-07
  1.300E+00  1.28695E-04  3.42200E-16  1.22202E+01  2.88049E-06  1.0E-07
  1.400E+00  1.49255E-04  3.40329E-16  1.21534E+01  3.10816E-06  1.0E-07
  1.500E+00  1.71338E-04  3.38336E-16  1.20822E+01  3.33718E-06  1.0E-07
  1.600E+00  1.94942E-04  3.36225E-16  1.20068E+01  3.56764E-06  1.0E-07
  1.700E+00  2.20070E-04  3.33997E-16  1.19273E+01  3.79962E-06  1.0E-07
  1.800E+00  2.46720E-04  3.31659E-16  1.18437E+01  4.03323E-06  1.0E-07
  1.900E+00  2.74892E-04  3.29211E-16  1.17564E+01  4.26854E-06  1.0E-07
  2.000E+00  3.04586E-04  3.26660E-16  1.16652E+01  4.50565E-06  1.0E-07
  2.100E+00  3.35803E-04  3.24008E-16  1.15706E+01  4.74464E-06  1.0E-07
  2.200E+00  3.68542E-04  3.21261E-16  1.14724E+01  4.98561E-06  1.0E-07
  2.300E+00  4.02802E-04  3.18421E-16  1.13710E+01  5.22864E-06  1.0E-07
  2.400E+00  4.38585E-04  3.15493E-16  1.12665E+01  5.47381E-06  1.0E-07
  2.500E+00  4.75889E-04  3.12482E-16  1.11589E+01  5.72120E-06  1.0E-07
  2.600E+00  5.14715E-04  3.09391E-16  1.10486E+01  5.97090E-06  1.0E-07
  2.700E+00  5.55063E-04  3.06226E-16  1.09355E+01  6.22300E-06  1.0E-07
  2.800E+00  5.96931E-04  3.02990E-16  1.08200E+01  6.47756E-06  1.0E-07
  2.900E+00  6.40321E-04  2.99689E-16  1.07021E+01  6.73466E-06  1.0E-07
  3.000E+00  6.85233E-04  2.96325E-16  1.05820E+01  6.99439E-06  1.0E-07
  3.100E+00  7.31665E-04  2.92905E-16  1.04598E+01  7.25682E-06  1.0E-07
  3.200E+00  7.79618E-04  2.89431E-16  1.03358E+01  7.52202E-06  1.0E-07
  3.300E+00  8.29092E-04  2.85909E-16  1.02100E+01  7.79006E-06  1.0E-07
  3.400E+00  8.80086E-04  2.82343E-16  1.00826E+01  8.06102E-06  1.0E-07
  3.500E+00  9.32601E-04  2.78736E-16  9.95385E+00  8.33496E-06  1.0E-07
  3.600E+00  9.86636E-04  2.75094E-16  9.82378E+00  8.61195E-06  1.0E-07
  3.700E+00  1.04219E-03  2.71420E-16  9.69258E+00  8.89206E-06  1.0E-07
  3.800E+00  1.09927E-03  2.67718E-16  9.56039E+00  9.17534E-06  1.0E-07
  3.900E+00  1.15786E-03  2.63993E-16  9.42735E+00  9.46186E-06  1.0E-07
  4.000E+00  1.21797E-03  2.60247E-16  9.29361E+00  9.75168E-06  1.0E-07
  4.100E+00  1.27961E-03  2.56486E-16  9.15928E+00  1.00449E-05  1.0E-07
  4.200E+00  1.34276E-03  2.52712E-16  9.02452E+00  1.03414E-05  1.0E-07
  4.300E+00  1.40743E-03  2.48929E-16  8.88943E+00  1.06415E-05  1.0E-07
  4.400E+00  1.47362E-03  2.45141E-16  8.75416E+00  1.09451E-05  1.0E-07
  4.500E+00  1.54133E-03  2.41351E-16  8.61881E+00  1.12522E-05  1.0E-07
  4.600E+00  1.61056E-03  2.37562E-16  8.48350E+00  1.15629E-05  1.0E-07
  4.700E+00  1.68131E-03  2.33778E-16  8.34835E+00  1.18773E-05  1.0E-07
  4.800E+00  1.75357E-03  2.30000E-16  8.21346E+00  1.21954E-05  1.0E-07
  4.900E+00  1.82735E-03  2.26233E-16  8.07893E+00  1.25172E-05  1.0E-07
  5.000E+00  1.90265E-03  2.22479E-16  7.94486E+00  1.28428E-05  1.0E-07
  5.100E+00  1.97947E-03  2.18740E-16  7.81135E+00  1.31722E-05  1.0E-07
  5.200E+00  2.05780E-03  2.15020E-16  7.67849E+00  1.35054E-05  1.0E-07
  5.300E+00  2.13765E-03  2.11320E-16  7.54636E+00  1.38426E-05  1.0E-07
  5.400E+00  2.21902E-03  2.07642E-16  7.41504E+00  1.41836E-05  1.0E-07
  5.500E+00  2.30190E-03  2.03990E-16  7.28461E+00  1.45285E-05  1.0E-07
  5.600E+00  2.38630E-03  2.00364E-16  7.15515E+00  1.48773E-05  1.0E-07
  5.700E+00  2.47222E-03  1.96768E-16  7.02671E+00  1.52301E-05  1.0E-07
  5.800E+00  2.55965E-03  1.93202E-16  6.89937E+00  1.55869E-05  1.0E-07
  5.900E+00  2.64859E-03  1.89668E-16  6.77318E+00  1.59477E-05  1.0E-07
  6.000E+00  2.73905E-03  1.86169E-16  6.64821E+00  1.63124E-05  1.0E-07
  6.100E+00  2.83103E-03  1.82704E-16  6.52449E+00  1.66812E-05  1.0E-07
  6.200E+00  2.92452E-03  1.79277E-16  6.40209E+00  1.70540E-05  1.0E-07
  6.300E+00  3.01952E-03  1.75887E-16  6.28105E+00  1.74307E-05  1.0E-07
  6.400E+00  3.11604E-03  1.72537E-16  6.16140E+00  1.78115E-05  1.0E-07
  6.500E+00  3.21407E-03  1.69226E-16  6.04318E+00  1.81963E-05  1.0E-07
  6.600E+00  3.31362E-03  1.65957E-16  5.92644E+00  1.85850E-05  1.0E-07
  6.700E+00  3.41468E-03  1.62730E-16  5.81119E+00  1.89778E-05  1.0E-07
  6.800E+00  3.51725E-03  1.59545E-16  5.69747E+00  1.93744E-05  1.0E-07
  6.900E+00  3.62133E-03  1.56404E-16  5.58530E+00  1.97751E-05  1.0E-07
  7.000E+00  3.72692E-03  1.53307E-16  5.47470E+00  2.01796E-05  1.0E-07
  7.100E+00  3.83403E-03  1.50255E-16  5.36569E+00  2.05880E-05  1.0E-07
  7.200E+00  3.94265E-03  1.47247E-16  5.25829E+00  2.10003E-05  1.0E-07
  7.300E+00  4.05278E-03  1.44285E-16  5.15252E+00  2.14164E-05  1.0E-07
  7.400E+00  4.16442E-03  1.41369E-16  5.04837E+00  2.18363E-05  1.0E-07
  7.500E+00  4.27757E-03  1.38498E-16  4.94586E+00  2.22600E-05  1.0E-07
  7.600E+00  4.39223E-03  1.35674E-16  4.84499E+00  2.26874E-05  1.0E-07
  7.700E+00  4.50840E-03  1.32895E-16  4.74578E+00  2.31184E-05  1.0E-07
  7.800E+00  4.62608E-03  1.30163E-16  4.64822E+00  2.35530E-05  1.0E-07
  7.900E+00  4.74527E-03  1.27477E-16  4.55230E+00  2.39912E-05  1.0E-07
  8.000E+00  4.86597E-03  1.24838E-16  4.45804E+00  2.44329E-05  1.0E-07
  8.100E+00  4.98817E-03  1.22244E-16  4.36542E+00  2.48780E-05  1.0E-07
  8.200E+00  5.11188E-03  1.19697E-16  4.27445E+00  2.53265E-05  1.0E-07
  8.300E+00  5.23711E-03  1.17195E-16  4.18511E+00  2.57783E-05  1.0E-07
  8.400E+00  5.36383E-03  1.14739E-16  4.09739E+00  2.62333E-05  1.0E-07
  8.500E+00  5.49207E-03  1.12328E-16  4.01129E+00  2.66914E-05  1.0E-07
  8.600E+00  5.62181E-03  1.09961E-16  3.92679E+00  2.71526E-05  1.0E-07
  8.700E+00  5.75306E-03  1.07640E-16  3.84389E+00  2.76168E-05  1.0E-07
  8.800E+00  5.88581E-03  1.05363E-16  3.76257E+00  2.80839E-05  1.0E-07
  8.900E+00  6.02007E-03  1.03129E-16  3.68282E+00  2.85538E-05  1.0E-07
  9.000E+00  6.15583E-03  1.00940E-16  3.60462E+00  2.90264E-05  1.0E-07
  9.100E+00  6.29310E-03  9.87926E-17  3.52795E+00  2.95016E-05  1.0E-07
  9.200E+00  6.43187E-03  9.66883E-17  3.45280E+00  2.99793E-05  1.0E-07
  9.300E+00  6.57214E-03  9.46260E-17  3.37916E+00  3.04593E-05  1.0E-07
  9.400E+00  6.71392E-03  9.26053E-17  3.30699E+00  3.09417E-05  1.0E-07
  9.500E+00  6.85720E-03  9.06256E-17  3.23630E+00  3.14262E-05  1.0E-07
  9.600E+00  7.00198E-03  8.86864E-17  3.16705E+00  3.19128E-05  1.0E-07
  9.700E+00  7.14827E-03  8.67872E-17  3.09923E+00  3.24013E-05  1.0E-07
  9.800E+00  7.29605E-03  8.49274E-17  3.03281E+00  3.28915E-05  1.0E-07
  9.900E+00  7.44534E-03  8.31064E-17  2.96778E+00  3.33835E-05  1.0E-07
  1.000E+01  7.59612E-03  8.13237E-17  2.90412E+00  3.38769E-05  1.0E-07
  1.025E+01  7.97965E-03  7.70305E-17  2.75081E+00  3.51163E-05  1.0E-07
  1.050E+01  8.37255E-03  7.29635E-17  2.60557E+00  3.63621E-05  1.0E-07
  1.075E+01  8.77480E-03  6.91133E-17  2.46808E+00  3.76119E-05  1.0E-07
  1.100E+01  9.18641E-03  6.54706E-17  2.33800E+00  3.88631E-05  1.0E-07
  1.125E+01  9.60736E-03  6.20260E-17  2.21499E+00  4.01131E-05  1.0E-07
  1.150E+01  1.00376E-02  5.87701E-17  2.09872E+00  4.13591E-05  1.0E-07
  1.175E+01  1.04773E-02  5.56938E-17  1.98886E+00  4.25980E-05  1.0E-07
  1.200E+01  1.09262E-02  5.27882E-17  1.88510E+00  4.38269E-05  1.0E-07
  1.225E+01  1.13844E-02  5.00446E-17  1.78712E+00  4.50427E-05  1.0E-07
  1.250E+01  1.18520E-02  4.74545E-17  1.69463E+00  4.62420E-05  1.0E-07
  1.275E+01  1.23288E-02  4.50099E-17  1.60733E+00  4.74215E-05  1.0E-07
  1.300E+01  1.28150E-02  4.27030E-17  1.52495E+00  4.85778E-05  1.0E-07
  1.325E+01  1.33104E-02  4.05261E-17  1.44721E+00  4.97073E-05  1.0E-07
  1.350E+01  1.38150E-02  3.84720E-17  1.37386E+00  5.08066E-05  1.0E-07
  1.375E+01  1.43290E-02  3.65340E-17  1.30465E+00  5.18719E-05  1.0E-07
  1.400E+01  1.48521E-02  3.47054E-17  1.23935E+00  5.28996E-05  1.0E-07
  1.425E+01  1.53845E-02  3.29800E-17  1.17774E+00  5.38860E-05  1.0E-07
  1.450E+01  1.59262E-02  3.13519E-17  1.11959E+00  5.48273E-05  1.0E-07
  1.475E+01  1.64770E-02  2.98153E-17  1.06472E+00  5.57198E-05  1.0E-07
