 #
 # Subroutine ELSEPA. Elastic scattering of electrons and positrons
 #                    by neutral atoms and positive ions
 #
 # Projectile: electron
 # Kinetic energy = 1.50000E+01 eV = 5.51240E-01 a.u.
 #
 #  ***  WARNING: Energy is too low.
 #                The reliability of the results is questionable.
 #
 # Element: Cu,  Z =  29,  atomic weight = 6.35460E+01 g/mol
 #
 # Nuclear model: Fermi distribution
 #                Average radius = 4.26986E-13 cm
 #                Skin thickness = 5.46000E-14 cm
 #
 # Number of electrons = 29
 #
 # Electron density: Read from file ./database/z_029.den                                                                                                    
 #                   Number of data points =  771
 #                   Volume integral = 2.90000E+01
 #
 # Furness-McCarthy exchange potential
 #
 # No absorption potential
 #
 # No correlation-polarization potential
 #
 # Integrated cross sections:
 # Total elastic cross section = 2.44681E-16 cm**2 = 8.73773E+00 a0**2
 # 1st transport cross section = 2.84000E-16 cm**2 = 1.01418E+01 a0**2
 # 2nd transport cross section = 9.46583E-17 cm**2 = 3.38031E+00 a0**2
 #
 #
 # Differential cross section:                       MU=(1-COS(THETA))/2
 #
 #  THETA        MU          DCS          DCS        Sherman      error
 #  (deg)                 (cm**2/sr)   (a0**2/sr)    function
 #----------------------------------------------------------------------
  0.000E+00  0.00000E+00  1.40916E-16  5.03222E+00  0.00000E+00  1.0E-07
  1.000E-04  7.61557E-13  1.40916E-16  5.03222E+00  2.27244E-10  1.0E-07
  1.250E-04  1.18994E-12  1.40916E-16  5.03222E+00  2.84055E-10  1.0E-07
  1.500E-04  1.71346E-12  1.40916E-16  5.03222E+00  3.40866E-10  1.0E-07
  1.750E-04  2.33225E-12  1.40916E-16  5.03222E+00  3.97677E-10  1.0E-07
  2.000E-04  3.04617E-12  1.40916E-16  5.03222E+00  4.54488E-10  1.0E-07
  2.250E-04  3.85530E-12  1.40916E-16  5.03222E+00  5.11298E-10  1.0E-07
  2.500E-04  4.75964E-12  1.40916E-16  5.03222E+00  5.68109E-10  1.0E-07
  2.750E-04  5.75917E-12  1.40916E-16  5.03222E+00  6.24920E-10  1.0E-07
  3.000E-04  6.85391E-12  1.40916E-16  5.03222E+00  6.81731E-10  1.0E-07
  3.250E-04  8.04379E-12  1.40916E-16  5.03222E+00  7.38542E-10  1.0E-07
  3.500E-04  9.32893E-12  1.40916E-16  5.03222E+00  7.95353E-10  1.0E-07
  3.750E-04  1.07092E-11  1.40916E-16  5.03222E+00  8.52164E-10  1.0E-07
  4.000E-04  1.21847E-11  1.40916E-16  5.03222E+00  9.08975E-10  1.0E-07
  4.250E-04  1.37554E-11  1.40916E-16  5.03222E+00  9.65786E-10  1.0E-07
  4.500E-04  1.54213E-11  1.40916E-16  5.03222E+00  1.02260E-09  1.0E-07
  4.750E-04  1.71823E-11  1.40916E-16  5.03222E+00  1.07941E-09  1.0E-07
  5.000E-04  1.90386E-11  1.40916E-16  5.03222E+00  1.13622E-09  1.0E-07
  5.250E-04  2.09900E-11  1.40916E-16  5.03222E+00  1.19303E-09  1.0E-07
  5.500E-04  2.30367E-11  1.40916E-16  5.03222E+00  1.24984E-09  1.0E-07
  5.750E-04  2.51785E-11  1.40916E-16  5.03222E+00  1.30665E-09  1.0E-07
  6.000E-04  2.74156E-11  1.40916E-16  5.03222E+00  1.36346E-09  1.0E-07
  6.250E-04  2.97478E-11  1.40916E-16  5.03222E+00  1.42027E-09  1.0E-07
  6.500E-04  3.21752E-11  1.40916E-16  5.03222E+00  1.47708E-09  1.0E-07
  6.750E-04  3.46979E-11  1.40916E-16  5.03222E+00  1.53390E-09  1.0E-07
  7.000E-04  3.73157E-11  1.40916E-16  5.03222E+00  1.59071E-09  1.0E-07
  7.250E-04  4.00286E-11  1.40916E-16  5.03222E+00  1.64752E-09  1.0E-07
  7.500E-04  4.28368E-11  1.40916E-16  5.03222E+00  1.70433E-09  1.0E-07
  7.750E-04  4.57402E-11  1.40916E-16  5.03222E+00  1.76114E-09  1.0E-07
  8.000E-04  4.87388E-11  1.40916E-16  5.03222E+00  1.81795E-09  1.0E-07
  8.250E-04  5.18325E-11  1.40916E-16  5.03222E+00  1.87476E-09  1.0E-07
  8.500E-04  5.50215E-11  1.40916E-16  5.03222E+00  1.93157E-09  1.0E-07
  8.750E-04  5.83057E-11  1.40916E-16  5.03222E+00  1.98838E-09  1.0E-07
  9.000E-04  6.16850E-11  1.40916E-16  5.03222E+00  2.04519E-09  1.0E-07
  9.250E-04  6.51595E-11  1.40916E-16  5.03222E+00  2.10200E-09  1.0E-07
  9.500E-04  6.87293E-11  1.40916E-16  5.03222E+00  2.15882E-09  1.0E-07
  9.750E-04  7.23943E-11  1.40916E-16  5.03222E+00  2.21563E-09  1.0E-07
  1.000E-03  7.61544E-11  1.40916E-16  5.03222E+00  2.27244E-09  1.0E-07
  1.250E-03  1.18991E-10  1.40916E-16  5.03222E+00  2.84055E-09  1.0E-07
  1.500E-03  1.71347E-10  1.40916E-16  5.03222E+00  3.40866E-09  1.0E-07
  1.750E-03  2.33223E-10  1.40916E-16  5.03222E+00  3.97677E-09  1.0E-07
  2.000E-03  3.04617E-10  1.40916E-16  5.03222E+00  4.54487E-09  1.0E-07
  2.250E-03  3.85531E-10  1.40916E-16  5.03222E+00  5.11298E-09  1.0E-07
  2.500E-03  4.75965E-10  1.40916E-16  5.03222E+00  5.68109E-09  1.0E-07
  2.750E-03  5.75917E-10  1.40916E-16  5.03222E+00  6.24920E-09  1.0E-07
  3.000E-03  6.85389E-10  1.40916E-16  5.03222E+00  6.81731E-09  1.0E-07
  3.250E-03  8.04380E-10  1.40916E-16  5.03222E+00  7.38542E-09  1.0E-07
  3.500E-03  9.32891E-10  1.40916E-16  5.03222E+00  7.95353E-09  1.0E-07
  3.750E-03  1.07092E-09  1.40916E-16  5.03222E+00  8.52164E-09  1.0E-07
  4.000E-03  1.21847E-09  1.40916E-16  5.03222E+00  9.08974E-09  1.0E-07
  4.250E-03  1.37554E-09  1.40916E-16  5.03222E+00  9.65785E-09  1.0E-07
  4.500E-03  1.54213E-09  1.40916E-16  5.03222E+00  1.02260E-08  1.0E-07
  4.750E-03  1.71823E-09  1.40916E-16  5.03222E+00  1.07941E-08  1.0E-07
  5.000E-03  1.90386E-09  1.40916E-16  5.03222E+00  1.13622E-08  1.0E-07
  5.250E-03  2.09900E-09  1.40916E-16  5.03222E+00  1.19303E-08  1.0E-07
  5.500E-03  2.30367E-09  1.40916E-16  5.03222E+00  1.24984E-08  1.0E-07
  5.750E-03  2.51785E-09  1.40916E-16  5.03222E+00  1.30665E-08  1.0E-07
  6.000E-03  2.74156E-09  1.40916E-16  5.03222E+00  1.36346E-08  1.0E-07
  6.250E-03  2.97478E-09  1.40916E-16  5.03222E+00  1.42027E-08  1.0E-07
  6.500E-03  3.21752E-09  1.40916E-16  5.03222E+00  1.47708E-08  1.0E-07
  6.750E-03  3.46978E-09  1.40916E-16  5.03222E+00  1.53389E-08  1.0E-07
  7.000E-03  3.73156E-09  1.40916E-16  5.03222E+00  1.59070E-08  1.0E-07
  7.250E-03  4.00286E-09  1.40916E-16  5.03222E+00  1.64751E-08  1.0E-07
  7.500E-03  4.28368E-09  1.40916E-16  5.03222E+00  1.70432E-08  1.0E-07
  7.750E-03  4.57402E-09  1.40916E-16  5.03222E+00  1.76113E-08  1.0E-07
  8.000E-03  4.87388E-09  1.40916E-16  5.03222E+00  1.81794E-08  1.0E-07
  8.250E-03  5.18326E-09  1.40916E-16  5.03222E+00  1.87476E-08  1.0E-07
  8.500E-03  5.50215E-09  1.40916E-16  5.03222E+00  1.93157E-08  1.0E-07
  8.750E-03  5.83057E-09  1.40916E-16  5.03222E+00  1.98838E-08  1.0E-07
  9.000E-03  6.16850E-09  1.40916E-16  5.03222E+00  2.04519E-08  1.0E-07
  9.250E-03  6.51596E-09  1.40916E-16  5.03222E+00  2.10200E-08  1.0E-07
  9.500E-03  6.87293E-09  1.40916E-16  5.03222E+00  2.15881E-08  1.0E-07
  9.750E-03  7.23942E-09  1.40916E-16  5.03222E+00  2.21562E-08  1.0E-07
  1.000E-02  7.61544E-09  1.40916E-16  5.03222E+00  2.27243E-08  1.0E-07
  1.250E-02  1.18991E-08  1.40916E-16  5.03222E+00  2.84053E-08  1.0E-07
  1.500E-02  1.71347E-08  1.40916E-16  5.03222E+00  3.40862E-08  1.0E-07
  1.750E-02  2.33223E-08  1.40916E-16  5.03222E+00  3.97671E-08  1.0E-07
  2.000E-02  3.04617E-08  1.40916E-16  5.03222E+00  4.54479E-08  1.0E-07
  2.250E-02  3.85531E-08  1.40916E-16  5.03221E+00  5.11287E-08  1.0E-07
  2.500E-02  4.75965E-08  1.40916E-16  5.03221E+00  5.68094E-08  1.0E-07
  2.750E-02  5.75917E-08  1.40916E-16  5.03221E+00  6.24899E-08  1.0E-07
  3.000E-02  6.85389E-08  1.40916E-16  5.03221E+00  6.81704E-08  1.0E-07
  3.250E-02  8.04380E-08  1.40916E-16  5.03221E+00  7.38508E-08  1.0E-07
  3.500E-02  9.32891E-08  1.40916E-16  5.03221E+00  7.95310E-08  1.0E-07
  3.750E-02  1.07092E-07  1.40916E-16  5.03221E+00  8.52111E-08  1.0E-07
  4.000E-02  1.21847E-07  1.40916E-16  5.03221E+00  9.08911E-08  1.0E-07
  4.250E-02  1.37554E-07  1.40916E-16  5.03220E+00  9.65709E-08  1.0E-07
  4.500E-02  1.54213E-07  1.40916E-16  5.03220E+00  1.02251E-07  1.0E-07
  4.750E-02  1.71823E-07  1.40916E-16  5.03220E+00  1.07930E-07  1.0E-07
  5.000E-02  1.90386E-07  1.40916E-16  5.03220E+00  1.13609E-07  1.0E-07
  5.250E-02  2.09900E-07  1.40916E-16  5.03220E+00  1.19288E-07  1.0E-07
  5.500E-02  2.30367E-07  1.40916E-16  5.03219E+00  1.24967E-07  1.0E-07
  5.750E-02  2.51785E-07  1.40916E-16  5.03219E+00  1.30646E-07  1.0E-07
  6.000E-02  2.74156E-07  1.40916E-16  5.03219E+00  1.36325E-07  1.0E-07
  6.250E-02  2.97478E-07  1.40916E-16  5.03219E+00  1.42003E-07  1.0E-07
  6.500E-02  3.21752E-07  1.40916E-16  5.03219E+00  1.47681E-07  1.0E-07
  6.750E-02  3.46978E-07  1.40915E-16  5.03218E+00  1.53359E-07  1.0E-07
  7.000E-02  3.73156E-07  1.40915E-16  5.03218E+00  1.59036E-07  1.0E-07
  7.250E-02  4.00286E-07  1.40915E-16  5.03218E+00  1.64713E-07  1.0E-07
  7.500E-02  4.28368E-07  1.40915E-16  5.03217E+00  1.70390E-07  1.0E-07
  7.750E-02  4.57402E-07  1.40915E-16  5.03217E+00  1.76067E-07  1.0E-07
  8.000E-02  4.87388E-07  1.40915E-16  5.03217E+00  1.81744E-07  1.0E-07
  8.250E-02  5.18325E-07  1.40915E-16  5.03216E+00  1.87420E-07  1.0E-07
  8.500E-02  5.50215E-07  1.40915E-16  5.03216E+00  1.93096E-07  1.0E-07
  8.750E-02  5.83057E-07  1.40915E-16  5.03216E+00  1.98771E-07  1.0E-07
  9.000E-02  6.16850E-07  1.40915E-16  5.03215E+00  2.04446E-07  1.0E-07
  9.250E-02  6.51596E-07  1.40915E-16  5.03215E+00  2.10121E-07  1.0E-07
  9.500E-02  6.87293E-07  1.40914E-16  5.03215E+00  2.15795E-07  1.0E-07
  9.750E-02  7.23942E-07  1.40914E-16  5.03214E+00  2.21470E-07  1.0E-07
  1.000E-01  7.61543E-07  1.40914E-16  5.03214E+00  2.27143E-07  1.0E-07
  1.250E-01  1.18991E-06  1.40913E-16  5.03210E+00  2.83859E-07  1.0E-07
  1.500E-01  1.71347E-06  1.40911E-16  5.03204E+00  3.40527E-07  1.0E-07
  1.750E-01  2.33223E-06  1.40910E-16  5.03198E+00  3.97138E-07  1.0E-07
  2.000E-01  3.04617E-06  1.40908E-16  5.03190E+00  4.53684E-07  1.0E-07
  2.250E-01  3.85531E-06  1.40905E-16  5.03182E+00  5.10155E-07  1.0E-07
  2.500E-01  4.75964E-06  1.40903E-16  5.03172E+00  5.66540E-07  1.0E-07
  2.750E-01  5.75916E-06  1.40900E-16  5.03162E+00  6.22832E-07  1.0E-07
  3.000E-01  6.85388E-06  1.40897E-16  5.03151E+00  6.79020E-07  1.0E-07
  3.250E-01  8.04378E-06  1.40893E-16  5.03138E+00  7.35095E-07  1.0E-07
  3.500E-01  9.32888E-06  1.40889E-16  5.03125E+00  7.91048E-07  1.0E-07
  3.750E-01  1.07092E-05  1.40885E-16  5.03110E+00  8.46868E-07  1.0E-07
  4.000E-01  1.21846E-05  1.40881E-16  5.03095E+00  9.02548E-07  1.0E-07
  4.250E-01  1.37553E-05  1.40876E-16  5.03079E+00  9.58077E-07  1.0E-07
  4.500E-01  1.54212E-05  1.40872E-16  5.03061E+00  1.01345E-06  1.0E-07
  4.750E-01  1.71822E-05  1.40866E-16  5.03043E+00  1.06864E-06  1.0E-07
  5.000E-01  1.90385E-05  1.40861E-16  5.03024E+00  1.12366E-06  1.0E-07
  5.250E-01  2.09899E-05  1.40855E-16  5.03004E+00  1.17850E-06  1.0E-07
  5.500E-01  2.30365E-05  1.40849E-16  5.02982E+00  1.23313E-06  1.0E-07
  5.750E-01  2.51783E-05  1.40843E-16  5.02960E+00  1.28756E-06  1.0E-07
  6.000E-01  2.74153E-05  1.40837E-16  5.02937E+00  1.34177E-06  1.0E-07
  6.250E-01  2.97475E-05  1.40830E-16  5.02912E+00  1.39575E-06  1.0E-07
  6.500E-01  3.21749E-05  1.40823E-16  5.02887E+00  1.44950E-06  1.0E-07
  6.750E-01  3.46974E-05  1.40815E-16  5.02861E+00  1.50300E-06  1.0E-07
  7.000E-01  3.73152E-05  1.40808E-16  5.02834E+00  1.55625E-06  1.0E-07
  7.250E-01  4.00281E-05  1.40800E-16  5.02806E+00  1.60923E-06  1.0E-07
  7.500E-01  4.28362E-05  1.40792E-16  5.02776E+00  1.66195E-06  1.0E-07
  7.750E-01  4.57395E-05  1.40783E-16  5.02746E+00  1.71437E-06  1.0E-07
  8.000E-01  4.87380E-05  1.40775E-16  5.02715E+00  1.76651E-06  1.0E-07
  8.250E-01  5.18317E-05  1.40766E-16  5.02683E+00  1.81834E-06  1.0E-07
  8.500E-01  5.50205E-05  1.40756E-16  5.02650E+00  1.86987E-06  1.0E-07
  8.750E-01  5.83045E-05  1.40747E-16  5.02616E+00  1.92107E-06  1.0E-07
  9.000E-01  6.16838E-05  1.40737E-16  5.02580E+00  1.97194E-06  1.0E-07
  9.250E-01  6.51582E-05  1.40727E-16  5.02544E+00  2.02247E-06  1.0E-07
  9.500E-01  6.87277E-05  1.40716E-16  5.02507E+00  2.07266E-06  1.0E-07
  9.750E-01  7.23925E-05  1.40706E-16  5.02469E+00  2.12248E-06  1.0E-07
  1.000E+00  7.61524E-05  1.40695E-16  5.02430E+00  2.17194E-06  1.0E-07
  1.100E+00  9.21439E-05  1.40648E-16  5.02264E+00  2.36589E-06  1.0E-07
  1.200E+00  1.09658E-04  1.40597E-16  5.02082E+00  2.55319E-06  1.0E-07
  1.300E+00  1.28695E-04  1.40542E-16  5.01885E+00  2.73323E-06  1.0E-07
  1.400E+00  1.49255E-04  1.40482E-16  5.01671E+00  2.90540E-06  1.0E-07
  1.500E+00  1.71338E-04  1.40418E-16  5.01442E+00  3.06908E-06  1.0E-07
  1.600E+00  1.94942E-04  1.40350E-16  5.01198E+00  3.22367E-06  1.0E-07
  1.700E+00  2.20070E-04  1.40277E-16  5.00937E+00  3.36854E-06  1.0E-07
  1.800E+00  2.46720E-04  1.40199E-16  5.00661E+00  3.50308E-06  1.0E-07
  1.900E+00  2.74892E-04  1.40118E-16  5.00370E+00  3.62667E-06  1.0E-07
  2.000E+00  3.04586E-04  1.40032E-16  5.00063E+00  3.73869E-06  1.0E-07
  2.100E+00  3.35803E-04  1.39941E-16  4.99740E+00  3.83851E-06  1.0E-07
  2.200E+00  3.68542E-04  1.39847E-16  4.99402E+00  3.92551E-06  1.0E-07
  2.300E+00  4.02802E-04  1.39748E-16  4.99048E+00  3.99907E-06  1.0E-07
  2.400E+00  4.38585E-04  1.39644E-16  4.98679E+00  4.05854E-06  1.0E-07
  2.500E+00  4.75889E-04  1.39537E-16  4.98295E+00  4.10331E-06  1.0E-07
  2.600E+00  5.14715E-04  1.39425E-16  4.97895E+00  4.13273E-06  1.0E-07
  2.700E+00  5.55063E-04  1.39309E-16  4.97480E+00  4.14616E-06  1.0E-07
  2.800E+00  5.96931E-04  1.39188E-16  4.97050E+00  4.14297E-06  1.0E-07
  2.900E+00  6.40321E-04  1.39063E-16  4.96604E+00  4.12251E-06  1.0E-07
  3.000E+00  6.85233E-04  1.38934E-16  4.96143E+00  4.08413E-06  1.0E-07
  3.100E+00  7.31665E-04  1.38801E-16  4.95668E+00  4.02718E-06  1.0E-07
  3.200E+00  7.79618E-04  1.38664E-16  4.95177E+00  3.95102E-06  1.0E-07
  3.300E+00  8.29092E-04  1.38522E-16  4.94671E+00  3.85498E-06  1.0E-07
  3.400E+00  8.80086E-04  1.38376E-16  4.94150E+00  3.73839E-06  1.0E-07
  3.500E+00  9.32601E-04  1.38226E-16  4.93614E+00  3.60061E-06  1.0E-07
  3.600E+00  9.86636E-04  1.38072E-16  4.93063E+00  3.44095E-06  1.0E-07
  3.700E+00  1.04219E-03  1.37913E-16  4.92497E+00  3.25875E-06  1.0E-07
  3.800E+00  1.09927E-03  1.37751E-16  4.91917E+00  3.05333E-06  1.0E-07
  3.900E+00  1.15786E-03  1.37584E-16  4.91321E+00  2.82401E-06  1.0E-07
  4.000E+00  1.21797E-03  1.37413E-16  4.90712E+00  2.57011E-06  1.0E-07
  4.100E+00  1.27961E-03  1.37238E-16  4.90087E+00  2.29093E-06  1.0E-07
  4.200E+00  1.34276E-03  1.37059E-16  4.89448E+00  1.98578E-06  1.0E-07
  4.300E+00  1.40743E-03  1.36876E-16  4.88795E+00  0.00000E+00  1.0E-07
  4.400E+00  1.47362E-03  1.36689E-16  4.88127E+00  0.00000E+00  1.0E-07
  4.500E+00  1.54133E-03  1.36498E-16  4.87445E+00  0.00000E+00  1.0E-07
  4.600E+00  1.61056E-03  1.36303E-16  4.86748E+00  0.00000E+00  1.0E-07
  4.700E+00  1.68131E-03  1.36104E-16  4.86038E+00  0.00000E+00  1.0E-07
  4.800E+00  1.75357E-03  1.35901E-16  4.85313E+00  0.00000E+00  1.0E-07
  4.900E+00  1.82735E-03  1.35695E-16  4.84574E+00  0.00000E+00  1.0E-07
  5.000E+00  1.90265E-03  1.35484E-16  4.83821E+00  0.00000E+00  1.0E-07
  5.100E+00  1.97947E-03  1.35269E-16  4.83054E+00  0.00000E+00  1.0E-07
  5.200E+00  2.05780E-03  1.35050E-16  4.82274E+00 -2.64994E-06  1.0E-07
  5.300E+00  2.13765E-03  1.34828E-16  4.81479E+00 -3.28792E-06  1.0E-07
  5.400E+00  2.21902E-03  1.34602E-16  4.80671E+00 -3.96060E-06  1.0E-07
  5.500E+00  2.30190E-03  1.34372E-16  4.79849E+00 -4.66872E-06  1.0E-07
  5.600E+00  2.38630E-03  1.34138E-16  4.79014E+00 -5.41307E-06  1.0E-07
  5.700E+00  2.47222E-03  1.33900E-16  4.78166E+00 -6.19442E-06  1.0E-07
  5.800E+00  2.55965E-03  1.33659E-16  4.77303E+00 -7.01355E-06  1.0E-07
  5.900E+00  2.64859E-03  1.33413E-16  4.76428E+00 -7.87126E-06  1.0E-07
  6.000E+00  2.73905E-03  1.33165E-16  4.75540E+00 -8.76834E-06  1.0E-07
  6.100E+00  2.83103E-03  1.32912E-16  4.74638E+00 -9.70559E-06  1.0E-07
  6.200E+00  2.92452E-03  1.32656E-16  4.73723E+00 -1.06838E-05  1.0E-07
  6.300E+00  3.01952E-03  1.32396E-16  4.72796E+00 -1.17039E-05  1.0E-07
  6.400E+00  3.11604E-03  1.32133E-16  4.71855E+00 -1.27665E-05  1.0E-07
  6.500E+00  3.21407E-03  1.31866E-16  4.70902E+00 -1.38727E-05  1.0E-07
  6.600E+00  3.31362E-03  1.31595E-16  4.69936E+00 -1.50231E-05  1.0E-07
  6.700E+00  3.41468E-03  1.31321E-16  4.68957E+00 -1.62187E-05  1.0E-07
  6.800E+00  3.51725E-03  1.31044E-16  4.67966E+00 -1.74603E-05  1.0E-07
  6.900E+00  3.62133E-03  1.30763E-16  4.66963E+00 -1.87488E-05  1.0E-07
  7.000E+00  3.72692E-03  1.30479E-16  4.65947E+00 -2.00850E-05  1.0E-07
  7.100E+00  3.83403E-03  1.30191E-16  4.64919E+00 -2.14699E-05  1.0E-07
  7.200E+00  3.94265E-03  1.29899E-16  4.63879E+00 -2.29043E-05  1.0E-07
  7.300E+00  4.05278E-03  1.29605E-16  4.62828E+00 -2.43891E-05  1.0E-07
  7.400E+00  4.16442E-03  1.29307E-16  4.61764E+00 -2.59252E-05  1.0E-07
  7.500E+00  4.27757E-03  1.29006E-16  4.60688E+00 -2.75136E-05  1.0E-07
  7.600E+00  4.39223E-03  1.28701E-16  4.59601E+00 -2.91551E-05  1.0E-07
  7.700E+00  4.50840E-03  1.28394E-16  4.58502E+00 -3.08508E-05  1.0E-07
  7.800E+00  4.62608E-03  1.28083E-16  4.57391E+00 -3.26015E-05  1.0E-07
  7.900E+00  4.74527E-03  1.27768E-16  4.56269E+00 -3.44082E-05  1.0E-07
  8.000E+00  4.86597E-03  1.27451E-16  4.55136E+00 -3.62719E-05  1.0E-07
  8.100E+00  4.98817E-03  1.27131E-16  4.53992E+00 -3.81935E-05  1.0E-07
  8.200E+00  5.11188E-03  1.26807E-16  4.52836E+00 -4.01741E-05  1.0E-07
  8.300E+00  5.23711E-03  1.26480E-16  4.51670E+00 -4.22146E-05  1.0E-07
  8.400E+00  5.36383E-03  1.26151E-16  4.50493E+00 -4.43160E-05  1.0E-07
  8.500E+00  5.49207E-03  1.25818E-16  4.49305E+00 -4.64794E-05  1.0E-07
  8.600E+00  5.62181E-03  1.25482E-16  4.48106E+00 -4.87057E-05  1.0E-07
  8.700E+00  5.75306E-03  1.25144E-16  4.46897E+00 -5.09961E-05  1.0E-07
  8.800E+00  5.88581E-03  1.24802E-16  4.45677E+00 -5.33515E-05  1.0E-07
  8.900E+00  6.02007E-03  1.24458E-16  4.44447E+00 -5.57731E-05  1.0E-07
  9.000E+00  6.15583E-03  1.24111E-16  4.43207E+00 -5.82619E-05  1.0E-07
  9.100E+00  6.29310E-03  1.23761E-16  4.41957E+00 -6.08189E-05  1.0E-07
  9.200E+00  6.43187E-03  1.23408E-16  4.40697E+00 -6.34453E-05  1.0E-07
  9.300E+00  6.57214E-03  1.23052E-16  4.39427E+00 -6.61423E-05  1.0E-07
  9.400E+00  6.71392E-03  1.22694E-16  4.38147E+00 -6.89108E-05  1.0E-07
  9.500E+00  6.85720E-03  1.22333E-16  4.36858E+00 -7.17521E-05  1.0E-07
  9.600E+00  7.00198E-03  1.21969E-16  4.35559E+00 -7.46672E-05  1.0E-07
  9.700E+00  7.14827E-03  1.21603E-16  4.34251E+00 -7.76574E-05  1.0E-07
  9.800E+00  7.29605E-03  1.21234E-16  4.32933E+00 -8.07238E-05  1.0E-07
  9.900E+00  7.44534E-03  1.20862E-16  4.31606E+00 -8.38677E-05  1.0E-07
  1.000E+01  7.59612E-03  1.20488E-16  4.30271E+00 -8.70901E-05  1.0E-07
  1.025E+01  7.97965E-03  1.19542E-16  4.26892E+00 -9.54980E-05  1.0E-07
  1.050E+01  8.37255E-03  1.18581E-16  4.23460E+00 -1.04424E-04  1.0E-07
  1.075E+01  8.77480E-03  1.17605E-16  4.19976E+00 -1.13888E-04  1.0E-07
  1.100E+01  9.18641E-03  1.16616E-16  4.16442E+00 -1.23911E-04  1.0E-07
  1.125E+01  9.60736E-03  1.15612E-16  4.12859E+00 -1.34513E-04  1.0E-07
  1.150E+01  1.00376E-02  1.14596E-16  4.09231E+00 -1.45716E-04  1.0E-07
  1.175E+01  1.04773E-02  1.13568E-16  4.05557E+00 -1.57543E-04  1.0E-07
  1.200E+01  1.09262E-02  1.12527E-16  4.01842E+00 -1.70017E-04  1.0E-07
  1.225E+01  1.13844E-02  1.11475E-16  3.98086E+00 -1.83160E-04  1.0E-07
  1.250E+01  1.18520E-02  1.10413E-16  3.94291E+00 -1.96999E-04  1.0E-07
  1.275E+01  1.23288E-02  1.09340E-16  3.90460E+00 -2.11556E-04  1.0E-07
  1.300E+01  1.28150E-02  1.08257E-16  3.86594E+00 -2.26860E-04  1.0E-07
  1.325E+01  1.33104E-02  1.07166E-16  3.82696E+00 -2.42935E-04  1.0E-07
  1.350E+01  1.38150E-02  1.06065E-16  3.78766E+00 -2.59810E-04  1.0E-07
  1.375E+01  1.43290E-02  1.04957E-16  3.74808E+00 -2.77513E-04  1.0E-07
  1.400E+01  1.48521E-02  1.03841E-16  3.70823E+00 -2.96072E-04  1.0E-07
  1.425E+01  1.53845E-02  1.02718E-16  3.66813E+00 -3.15519E-04  1.0E-07
