 #
 # Subroutine ELSEPA. Elastic scattering of electrons and positrons
 #                    by neutral atoms and positive ions
 #
 # Projectile: electron
 # Kinetic energy = 6.00000E+02 eV = 2.20496E+01 a.u.
 #
 # Element: Cu,  Z =  29,  atomic weight = 6.35460E+01 g/mol
 #
 # Nuclear model: Fermi distribution
 #                Average radius = 4.26986E-13 cm
 #                Skin thickness = 5.46000E-14 cm
 #
 # Number of electrons = 29
 #
 # Electron density: Read from file ./database/z_029.den                                                                                                    
 #                   Number of data points =  771
 #                   Volume integral = 2.90000E+01
 #
 # Furness-McCarthy exchange potential
 #
 # No absorption potential
 #
 # No correlation-polarization potential
 #
 # Integrated cross sections:
 # Total elastic cross section = 1.77557E-16 cm**2 = 6.34068E+00 a0**2
 # 1st transport cross section = 6.06594E-17 cm**2 = 2.16619E+00 a0**2
 # 2nd transport cross section = 5.25322E-17 cm**2 = 1.87596E+00 a0**2
 #
 #
 # Differential cross section:                       MU=(1-COS(THETA))/2
 #
 #  THETA        MU          DCS          DCS        Sherman      error
 #  (deg)                 (cm**2/sr)   (a0**2/sr)    function
 #----------------------------------------------------------------------
  0.000E+00  0.00000E+00  1.26361E-15  4.51242E+01  0.00000E+00  1.0E-07
  1.000E-04  7.61557E-13  1.26361E-15  4.51242E+01  1.57718E-09  1.0E-07
  1.250E-04  1.18994E-12  1.26361E-15  4.51242E+01  1.97148E-09  1.0E-07
  1.500E-04  1.71346E-12  1.26361E-15  4.51242E+01  2.36577E-09  1.0E-07
  1.750E-04  2.33225E-12  1.26361E-15  4.51242E+01  2.76007E-09  1.0E-07
  2.000E-04  3.04617E-12  1.26361E-15  4.51242E+01  3.15436E-09  1.0E-07
  2.250E-04  3.85530E-12  1.26361E-15  4.51242E+01  3.54866E-09  1.0E-07
  2.500E-04  4.75964E-12  1.26361E-15  4.51242E+01  3.94295E-09  1.0E-07
  2.750E-04  5.75917E-12  1.26361E-15  4.51242E+01  4.33725E-09  1.0E-07
  3.000E-04  6.85391E-12  1.26361E-15  4.51242E+01  4.73154E-09  1.0E-07
  3.250E-04  8.04379E-12  1.26361E-15  4.51242E+01  5.12584E-09  1.0E-07
  3.500E-04  9.32893E-12  1.26361E-15  4.51242E+01  5.52014E-09  1.0E-07
  3.750E-04  1.07092E-11  1.26361E-15  4.51242E+01  5.91443E-09  1.0E-07
  4.000E-04  1.21847E-11  1.26361E-15  4.51242E+01  6.30873E-09  1.0E-07
  4.250E-04  1.37554E-11  1.26361E-15  4.51242E+01  6.70302E-09  1.0E-07
  4.500E-04  1.54213E-11  1.26361E-15  4.51242E+01  7.09732E-09  1.0E-07
  4.750E-04  1.71823E-11  1.26361E-15  4.51242E+01  7.49161E-09  1.0E-07
  5.000E-04  1.90386E-11  1.26361E-15  4.51242E+01  7.88591E-09  1.0E-07
  5.250E-04  2.09900E-11  1.26361E-15  4.51242E+01  8.28020E-09  1.0E-07
  5.500E-04  2.30367E-11  1.26361E-15  4.51242E+01  8.67450E-09  1.0E-07
  5.750E-04  2.51785E-11  1.26361E-15  4.51242E+01  9.06879E-09  1.0E-07
  6.000E-04  2.74156E-11  1.26361E-15  4.51242E+01  9.46309E-09  1.0E-07
  6.250E-04  2.97478E-11  1.26361E-15  4.51242E+01  9.85738E-09  1.0E-07
  6.500E-04  3.21752E-11  1.26361E-15  4.51242E+01  1.02517E-08  1.0E-07
  6.750E-04  3.46979E-11  1.26361E-15  4.51242E+01  1.06460E-08  1.0E-07
  7.000E-04  3.73157E-11  1.26361E-15  4.51242E+01  1.10403E-08  1.0E-07
  7.250E-04  4.00286E-11  1.26361E-15  4.51242E+01  1.14346E-08  1.0E-07
  7.500E-04  4.28368E-11  1.26361E-15  4.51242E+01  1.18289E-08  1.0E-07
  7.750E-04  4.57402E-11  1.26361E-15  4.51242E+01  1.22232E-08  1.0E-07
  8.000E-04  4.87388E-11  1.26361E-15  4.51242E+01  1.26175E-08  1.0E-07
  8.250E-04  5.18325E-11  1.26361E-15  4.51242E+01  1.30117E-08  1.0E-07
  8.500E-04  5.50215E-11  1.26361E-15  4.51242E+01  1.34060E-08  1.0E-07
  8.750E-04  5.83057E-11  1.26361E-15  4.51242E+01  1.38003E-08  1.0E-07
  9.000E-04  6.16850E-11  1.26361E-15  4.51242E+01  1.41946E-08  1.0E-07
  9.250E-04  6.51595E-11  1.26361E-15  4.51242E+01  1.45889E-08  1.0E-07
  9.500E-04  6.87293E-11  1.26361E-15  4.51242E+01  1.49832E-08  1.0E-07
  9.750E-04  7.23943E-11  1.26361E-15  4.51242E+01  1.53775E-08  1.0E-07
  1.000E-03  7.61544E-11  1.26361E-15  4.51242E+01  1.57718E-08  1.0E-07
  1.250E-03  1.18991E-10  1.26361E-15  4.51242E+01  1.97148E-08  1.0E-07
  1.500E-03  1.71347E-10  1.26361E-15  4.51242E+01  2.36577E-08  1.0E-07
  1.750E-03  2.33223E-10  1.26361E-15  4.51242E+01  2.76007E-08  1.0E-07
  2.000E-03  3.04617E-10  1.26361E-15  4.51242E+01  3.15436E-08  1.0E-07
  2.250E-03  3.85531E-10  1.26361E-15  4.51242E+01  3.54866E-08  1.0E-07
  2.500E-03  4.75965E-10  1.26361E-15  4.51242E+01  3.94295E-08  1.0E-07
  2.750E-03  5.75917E-10  1.26361E-15  4.51242E+01  4.33725E-08  1.0E-07
  3.000E-03  6.85389E-10  1.26361E-15  4.51242E+01  4.73154E-08  1.0E-07
  3.250E-03  8.04380E-10  1.26361E-15  4.51242E+01  5.12584E-08  1.0E-07
  3.500E-03  9.32891E-10  1.26361E-15  4.51242E+01  5.52014E-08  1.0E-07
  3.750E-03  1.07092E-09  1.26361E-15  4.51242E+01  5.91443E-08  1.0E-07
  4.000E-03  1.21847E-09  1.26361E-15  4.51242E+01  6.30873E-08  1.0E-07
  4.250E-03  1.37554E-09  1.26361E-15  4.51242E+01  6.70302E-08  1.0E-07
  4.500E-03  1.54213E-09  1.26361E-15  4.51242E+01  7.09732E-08  1.0E-07
  4.750E-03  1.71823E-09  1.26361E-15  4.51242E+01  7.49161E-08  1.0E-07
  5.000E-03  1.90386E-09  1.26361E-15  4.51242E+01  7.88591E-08  1.0E-07
  5.250E-03  2.09900E-09  1.26361E-15  4.51242E+01  8.28021E-08  1.0E-07
  5.500E-03  2.30367E-09  1.26361E-15  4.51242E+01  8.67450E-08  1.0E-07
  5.750E-03  2.51785E-09  1.26361E-15  4.51242E+01  9.06880E-08  1.0E-07
  6.000E-03  2.74156E-09  1.26361E-15  4.51242E+01  9.46309E-08  1.0E-07
  6.250E-03  2.97478E-09  1.26361E-15  4.51242E+01  9.85739E-08  1.0E-07
  6.500E-03  3.21752E-09  1.26361E-15  4.51242E+01  1.02517E-07  1.0E-07
  6.750E-03  3.46978E-09  1.26361E-15  4.51242E+01  1.06460E-07  1.0E-07
  7.000E-03  3.73156E-09  1.26361E-15  4.51242E+01  1.10403E-07  1.0E-07
  7.250E-03  4.00286E-09  1.26361E-15  4.51242E+01  1.14346E-07  1.0E-07
  7.500E-03  4.28368E-09  1.26361E-15  4.51242E+01  1.18289E-07  1.0E-07
  7.750E-03  4.57402E-09  1.26361E-15  4.51242E+01  1.22232E-07  1.0E-07
  8.000E-03  4.87388E-09  1.26361E-15  4.51242E+01  1.26175E-07  1.0E-07
  8.250E-03  5.18326E-09  1.26361E-15  4.51242E+01  1.30118E-07  1.0E-07
  8.500E-03  5.50215E-09  1.26361E-15  4.51242E+01  1.34061E-07  1.0E-07
  8.750E-03  5.83057E-09  1.26361E-15  4.51242E+01  1.38003E-07  1.0E-07
  9.000E-03  6.16850E-09  1.26360E-15  4.51242E+01  1.41946E-07  1.0E-07
  9.250E-03  6.51596E-09  1.26360E-15  4.51241E+01  1.45889E-07  1.0E-07
  9.500E-03  6.87293E-09  1.26360E-15  4.51241E+01  1.49832E-07  1.0E-07
  9.750E-03  7.23942E-09  1.26360E-15  4.51241E+01  1.53775E-07  1.0E-07
  1.000E-02  7.61544E-09  1.26360E-15  4.51241E+01  1.57718E-07  1.0E-07
  1.250E-02  1.18991E-08  1.26360E-15  4.51241E+01  1.97148E-07  1.0E-07
  1.500E-02  1.71347E-08  1.26360E-15  4.51240E+01  2.36578E-07  1.0E-07
  1.750E-02  2.33223E-08  1.26360E-15  4.51239E+01  2.76008E-07  1.0E-07
  2.000E-02  3.04617E-08  1.26360E-15  4.51238E+01  3.15438E-07  1.0E-07
  2.250E-02  3.85531E-08  1.26359E-15  4.51237E+01  3.54868E-07  1.0E-07
  2.500E-02  4.75965E-08  1.26359E-15  4.51236E+01  3.94298E-07  1.0E-07
  2.750E-02  5.75917E-08  1.26359E-15  4.51235E+01  4.33729E-07  1.0E-07
  3.000E-02  6.85389E-08  1.26358E-15  4.51234E+01  4.73159E-07  1.0E-07
  3.250E-02  8.04380E-08  1.26358E-15  4.51232E+01  5.12590E-07  1.0E-07
  3.500E-02  9.32891E-08  1.26357E-15  4.51231E+01  5.52021E-07  1.0E-07
  3.750E-02  1.07092E-07  1.26357E-15  4.51229E+01  5.91453E-07  1.0E-07
  4.000E-02  1.21847E-07  1.26356E-15  4.51227E+01  6.30884E-07  1.0E-07
  4.250E-02  1.37554E-07  1.26356E-15  4.51225E+01  6.70316E-07  1.0E-07
  4.500E-02  1.54213E-07  1.26355E-15  4.51223E+01  7.09748E-07  1.0E-07
  4.750E-02  1.71823E-07  1.26355E-15  4.51221E+01  7.49181E-07  1.0E-07
  5.000E-02  1.90386E-07  1.26354E-15  4.51219E+01  7.88613E-07  1.0E-07
  5.250E-02  2.09900E-07  1.26353E-15  4.51216E+01  8.28046E-07  1.0E-07
  5.500E-02  2.30367E-07  1.26353E-15  4.51214E+01  8.67480E-07  1.0E-07
  5.750E-02  2.51785E-07  1.26352E-15  4.51211E+01  9.06914E-07  1.0E-07
  6.000E-02  2.74156E-07  1.26351E-15  4.51208E+01  9.46348E-07  1.0E-07
  6.250E-02  2.97478E-07  1.26350E-15  4.51205E+01  9.85783E-07  1.0E-07
  6.500E-02  3.21752E-07  1.26349E-15  4.51202E+01  1.02522E-06  1.0E-07
  6.750E-02  3.46978E-07  1.26349E-15  4.51199E+01  1.06465E-06  1.0E-07
  7.000E-02  3.73156E-07  1.26348E-15  4.51196E+01  1.10409E-06  1.0E-07
  7.250E-02  4.00286E-07  1.26347E-15  4.51192E+01  1.14353E-06  1.0E-07
  7.500E-02  4.28368E-07  1.26346E-15  4.51189E+01  1.18296E-06  1.0E-07
  7.750E-02  4.57402E-07  1.26345E-15  4.51185E+01  1.22240E-06  1.0E-07
  8.000E-02  4.87388E-07  1.26344E-15  4.51181E+01  1.26184E-06  1.0E-07
  8.250E-02  5.18325E-07  1.26343E-15  4.51178E+01  1.30128E-06  1.0E-07
  8.500E-02  5.50215E-07  1.26341E-15  4.51174E+01  1.34072E-06  1.0E-07
  8.750E-02  5.83057E-07  1.26340E-15  4.51169E+01  1.38016E-06  1.0E-07
  9.000E-02  6.16850E-07  1.26339E-15  4.51165E+01  1.41960E-06  1.0E-07
  9.250E-02  6.51596E-07  1.26338E-15  4.51161E+01  1.45904E-06  1.0E-07
  9.500E-02  6.87293E-07  1.26337E-15  4.51156E+01  1.49848E-06  1.0E-07
  9.750E-02  7.23942E-07  1.26335E-15  4.51152E+01  1.53792E-06  1.0E-07
  1.000E-01  7.61543E-07  1.26334E-15  4.51147E+01  1.57736E-06  1.0E-07
  1.250E-01  1.18991E-06  1.26319E-15  4.51094E+01  1.97183E-06  1.0E-07
  1.500E-01  1.71347E-06  1.26301E-15  4.51028E+01  2.36638E-06  1.0E-07
  1.750E-01  2.33223E-06  1.26279E-15  4.50951E+01  2.76104E-06  1.0E-07
  2.000E-01  3.04617E-06  1.26254E-15  4.50862E+01  3.15581E-06  1.0E-07
  2.250E-01  3.85531E-06  1.26226E-15  4.50761E+01  3.55072E-06  1.0E-07
  2.500E-01  4.75964E-06  1.26194E-15  4.50649E+01  3.94578E-06  1.0E-07
  2.750E-01  5.75916E-06  1.26160E-15  4.50524E+01  4.34102E-06  1.0E-07
  3.000E-01  6.85388E-06  1.26121E-15  4.50388E+01  4.73644E-06  1.0E-07
  3.250E-01  8.04378E-06  1.26080E-15  4.50240E+01  5.13206E-06  1.0E-07
  3.500E-01  9.32888E-06  1.26035E-15  4.50080E+01  5.52790E-06  1.0E-07
  3.750E-01  1.07092E-05  1.25987E-15  4.49908E+01  5.92398E-06  1.0E-07
  4.000E-01  1.21846E-05  1.25936E-15  4.49725E+01  6.32032E-06  1.0E-07
  4.250E-01  1.37553E-05  1.25881E-15  4.49530E+01  6.71692E-06  1.0E-07
  4.500E-01  1.54212E-05  1.25823E-15  4.49323E+01  7.11382E-06  1.0E-07
  4.750E-01  1.71822E-05  1.25762E-15  4.49105E+01  7.51102E-06  1.0E-07
  5.000E-01  1.90385E-05  1.25698E-15  4.48875E+01  7.90855E-06  1.0E-07
  5.250E-01  2.09899E-05  1.25630E-15  4.48633E+01  8.30641E-06  1.0E-07
  5.500E-01  2.30365E-05  1.25559E-15  4.48380E+01  8.70463E-06  1.0E-07
  5.750E-01  2.51783E-05  1.25485E-15  4.48116E+01  9.10322E-06  1.0E-07
  6.000E-01  2.74153E-05  1.25408E-15  4.47840E+01  9.50220E-06  1.0E-07
  6.250E-01  2.97475E-05  1.25327E-15  4.47552E+01  9.90159E-06  1.0E-07
  6.500E-01  3.21749E-05  1.25244E-15  4.47253E+01  1.03014E-05  1.0E-07
  6.750E-01  3.46974E-05  1.25157E-15  4.46943E+01  1.07017E-05  1.0E-07
  7.000E-01  3.73152E-05  1.25067E-15  4.46621E+01  1.11024E-05  1.0E-07
  7.250E-01  4.00281E-05  1.24973E-15  4.46288E+01  1.15036E-05  1.0E-07
  7.500E-01  4.28362E-05  1.24877E-15  4.45943E+01  1.19052E-05  1.0E-07
  7.750E-01  4.57395E-05  1.24777E-15  4.45588E+01  1.23074E-05  1.0E-07
  8.000E-01  4.87380E-05  1.24675E-15  4.45221E+01  1.27101E-05  1.0E-07
  8.250E-01  5.18317E-05  1.24569E-15  4.44843E+01  1.31134E-05  1.0E-07
  8.500E-01  5.50205E-05  1.24460E-15  4.44454E+01  1.35172E-05  1.0E-07
  8.750E-01  5.83045E-05  1.24348E-15  4.44054E+01  1.39216E-05  1.0E-07
  9.000E-01  6.16838E-05  1.24233E-15  4.43643E+01  1.43266E-05  1.0E-07
  9.250E-01  6.51582E-05  1.24114E-15  4.43221E+01  1.47322E-05  1.0E-07
  9.500E-01  6.87277E-05  1.23993E-15  4.42788E+01  1.51384E-05  1.0E-07
  9.750E-01  7.23925E-05  1.23869E-15  4.42344E+01  1.55453E-05  1.0E-07
  1.000E+00  7.61524E-05  1.23742E-15  4.41889E+01  1.59528E-05  1.0E-07
  1.100E+00  9.21439E-05  1.23202E-15  4.39964E+01  1.75898E-05  1.0E-07
  1.200E+00  1.09658E-04  1.22616E-15  4.37871E+01  1.92387E-05  1.0E-07
  1.300E+00  1.28695E-04  1.21984E-15  4.35613E+01  2.09007E-05  1.0E-07
  1.400E+00  1.49255E-04  1.21307E-15  4.33195E+01  2.25766E-05  1.0E-07
  1.500E+00  1.71338E-04  1.20586E-15  4.30622E+01  2.42677E-05  1.0E-07
  1.600E+00  1.94942E-04  1.19823E-15  4.27897E+01  2.59749E-05  1.0E-07
  1.700E+00  2.20070E-04  1.19020E-15  4.25027E+01  2.76994E-05  1.0E-07
  1.800E+00  2.46720E-04  1.18177E-15  4.22016E+01  2.94421E-05  1.0E-07
  1.900E+00  2.74892E-04  1.17296E-15  4.18870E+01  3.12042E-05  1.0E-07
  2.000E+00  3.04586E-04  1.16378E-15  4.15594E+01  3.29866E-05  1.0E-07
  2.100E+00  3.35803E-04  1.15426E-15  4.12193E+01  3.47905E-05  1.0E-07
  2.200E+00  3.68542E-04  1.14440E-15  4.08674E+01  3.66168E-05  1.0E-07
  2.300E+00  4.02802E-04  1.13423E-15  4.05042E+01  3.84665E-05  1.0E-07
  2.400E+00  4.38585E-04  1.12376E-15  4.01303E+01  4.03407E-05  1.0E-07
  2.500E+00  4.75889E-04  1.11301E-15  3.97463E+01  4.22404E-05  1.0E-07
  2.600E+00  5.14715E-04  1.10199E-15  3.93528E+01  4.41666E-05  1.0E-07
  2.700E+00  5.55063E-04  1.09072E-15  3.89505E+01  4.61202E-05  1.0E-07
  2.800E+00  5.96931E-04  1.07922E-15  3.85398E+01  4.81023E-05  1.0E-07
  2.900E+00  6.40321E-04  1.06751E-15  3.81215E+01  5.01139E-05  1.0E-07
  3.000E+00  6.85233E-04  1.05560E-15  3.76961E+01  5.21558E-05  1.0E-07
  3.100E+00  7.31665E-04  1.04351E-15  3.72643E+01  5.42290E-05  1.0E-07
  3.200E+00  7.79618E-04  1.03125E-15  3.68266E+01  5.63345E-05  1.0E-07
  3.300E+00  8.29092E-04  1.01884E-15  3.63836E+01  5.84732E-05  1.0E-07
  3.400E+00  8.80086E-04  1.00631E-15  3.59358E+01  6.06459E-05  1.0E-07
  3.500E+00  9.32601E-04  9.93651E-16  3.54839E+01  6.28537E-05  1.0E-07
  3.600E+00  9.86636E-04  9.80896E-16  3.50284E+01  6.50973E-05  1.0E-07
  3.700E+00  1.04219E-03  9.68055E-16  3.45699E+01  6.73777E-05  1.0E-07
  3.800E+00  1.09927E-03  9.55143E-16  3.41088E+01  6.96956E-05  1.0E-07
  3.900E+00  1.15786E-03  9.42174E-16  3.36457E+01  7.20520E-05  1.0E-07
  4.000E+00  1.21797E-03  9.29163E-16  3.31810E+01  7.44476E-05  1.0E-07
  4.100E+00  1.27961E-03  9.16123E-16  3.27154E+01  7.68832E-05  1.0E-07
  4.200E+00  1.34276E-03  9.03067E-16  3.22491E+01  7.93595E-05  1.0E-07
  4.300E+00  1.40743E-03  8.90008E-16  3.17828E+01  8.18775E-05  1.0E-07
  4.400E+00  1.47362E-03  8.76958E-16  3.13167E+01  8.44377E-05  1.0E-07
  4.500E+00  1.54133E-03  8.63928E-16  3.08514E+01  8.70408E-05  1.0E-07
  4.600E+00  1.61056E-03  8.50930E-16  3.03872E+01  8.96877E-05  1.0E-07
  4.700E+00  1.68131E-03  8.37973E-16  2.99246E+01  9.23789E-05  1.0E-07
  4.800E+00  1.75357E-03  8.25070E-16  2.94638E+01  9.51151E-05  1.0E-07
  4.900E+00  1.82735E-03  8.12228E-16  2.90052E+01  9.78969E-05  1.0E-07
  5.000E+00  1.90265E-03  7.99457E-16  2.85491E+01  1.00725E-04  1.0E-07
  5.100E+00  1.97947E-03  7.86765E-16  2.80959E+01  1.03600E-04  1.0E-07
  5.200E+00  2.05780E-03  7.74161E-16  2.76458E+01  1.06522E-04  1.0E-07
  5.300E+00  2.13765E-03  7.61653E-16  2.71991E+01  1.09492E-04  1.0E-07
  5.400E+00  2.21902E-03  7.49247E-16  2.67561E+01  1.12510E-04  1.0E-07
  5.500E+00  2.30190E-03  7.36949E-16  2.63169E+01  1.15577E-04  1.0E-07
  5.600E+00  2.38630E-03  7.24767E-16  2.58819E+01  1.18693E-04  1.0E-07
  5.700E+00  2.47222E-03  7.12705E-16  2.54512E+01  1.21859E-04  1.0E-07
  5.800E+00  2.55965E-03  7.00769E-16  2.50249E+01  1.25075E-04  1.0E-07
  5.900E+00  2.64859E-03  6.88964E-16  2.46034E+01  1.28341E-04  1.0E-07
  6.000E+00  2.73905E-03  6.77294E-16  2.41866E+01  1.31657E-04  1.0E-07
  6.100E+00  2.83103E-03  6.65763E-16  2.37748E+01  1.35025E-04  1.0E-07
  6.200E+00  2.92452E-03  6.54374E-16  2.33681E+01  1.38444E-04  1.0E-07
  6.300E+00  3.01952E-03  6.43131E-16  2.29666E+01  1.41915E-04  1.0E-07
  6.400E+00  3.11604E-03  6.32036E-16  2.25704E+01  1.45437E-04  1.0E-07
  6.500E+00  3.21407E-03  6.21092E-16  2.21796E+01  1.49011E-04  1.0E-07
  6.600E+00  3.31362E-03  6.10301E-16  2.17942E+01  1.52637E-04  1.0E-07
  6.700E+00  3.41468E-03  5.99664E-16  2.14144E+01  1.56315E-04  1.0E-07
  6.800E+00  3.51725E-03  5.89184E-16  2.10401E+01  1.60045E-04  1.0E-07
  6.900E+00  3.62133E-03  5.78861E-16  2.06715E+01  1.63827E-04  1.0E-07
  7.000E+00  3.72692E-03  5.68696E-16  2.03085E+01  1.67662E-04  1.0E-07
  7.100E+00  3.83403E-03  5.58690E-16  1.99512E+01  1.71548E-04  1.0E-07
  7.200E+00  3.94265E-03  5.48843E-16  1.95995E+01  1.75488E-04  1.0E-07
  7.300E+00  4.05278E-03  5.39155E-16  1.92536E+01  1.79479E-04  1.0E-07
  7.400E+00  4.16442E-03  5.29627E-16  1.89133E+01  1.83522E-04  1.0E-07
  7.500E+00  4.27757E-03  5.20258E-16  1.85787E+01  1.87617E-04  1.0E-07
  7.600E+00  4.39223E-03  5.11047E-16  1.82498E+01  1.91764E-04  1.0E-07
  7.700E+00  4.50840E-03  5.01993E-16  1.79265E+01  1.95963E-04  1.0E-07
  7.800E+00  4.62608E-03  4.93097E-16  1.76088E+01  2.00213E-04  1.0E-07
  7.900E+00  4.74527E-03  4.84357E-16  1.72967E+01  2.04514E-04  1.0E-07
  8.000E+00  4.86597E-03  4.75771E-16  1.69901E+01  2.08866E-04  1.0E-07
  8.100E+00  4.98817E-03  4.67340E-16  1.66890E+01  2.13269E-04  1.0E-07
  8.200E+00  5.11188E-03  4.59060E-16  1.63933E+01  2.17722E-04  1.0E-07
  8.300E+00  5.23711E-03  4.50931E-16  1.61030E+01  2.22225E-04  1.0E-07
  8.400E+00  5.36383E-03  4.42952E-16  1.58181E+01  2.26778E-04  1.0E-07
  8.500E+00  5.49207E-03  4.35120E-16  1.55384E+01  2.31380E-04  1.0E-07
  8.600E+00  5.62181E-03  4.27433E-16  1.52639E+01  2.36031E-04  1.0E-07
  8.700E+00  5.75306E-03  4.19891E-16  1.49946E+01  2.40730E-04  1.0E-07
  8.800E+00  5.88581E-03  4.12490E-16  1.47303E+01  2.45477E-04  1.0E-07
  8.900E+00  6.02007E-03  4.05230E-16  1.44710E+01  2.50272E-04  1.0E-07
  9.000E+00  6.15583E-03  3.98107E-16  1.42167E+01  2.55114E-04  1.0E-07
  9.100E+00  6.29310E-03  3.91121E-16  1.39672E+01  2.60002E-04  1.0E-07
  9.200E+00  6.43187E-03  3.84269E-16  1.37225E+01  2.64936E-04  1.0E-07
  9.300E+00  6.57214E-03  3.77548E-16  1.34825E+01  2.69916E-04  1.0E-07
  9.400E+00  6.71392E-03  3.70958E-16  1.32471E+01  2.74940E-04  1.0E-07
  9.500E+00  6.85720E-03  3.64494E-16  1.30163E+01  2.80009E-04  1.0E-07
  9.600E+00  7.00198E-03  3.58156E-16  1.27900E+01  2.85121E-04  1.0E-07
  9.700E+00  7.14827E-03  3.51942E-16  1.25681E+01  2.90276E-04  1.0E-07
  9.800E+00  7.29605E-03  3.45848E-16  1.23505E+01  2.95474E-04  1.0E-07
  9.900E+00  7.44534E-03  3.39873E-16  1.21371E+01  3.00713E-04  1.0E-07
  1.000E+01  7.59612E-03  3.34015E-16  1.19279E+01  3.05992E-04  1.0E-07
  1.025E+01  7.97965E-03  3.19866E-16  1.14226E+01  3.19366E-04  1.0E-07
  1.050E+01  8.37255E-03  3.06400E-16  1.09417E+01  3.32980E-04  1.0E-07
  1.075E+01  8.77480E-03  2.93582E-16  1.04840E+01  3.46820E-04  1.0E-07
  1.100E+01  9.18641E-03  2.81381E-16  1.00483E+01  3.60875E-04  1.0E-07
  1.125E+01  9.60736E-03  2.69766E-16  9.63353E+00  3.75130E-04  1.0E-07
  1.150E+01  1.00376E-02  2.58707E-16  9.23860E+00  3.89570E-04  1.0E-07
  1.175E+01  1.04773E-02  2.48175E-16  8.86248E+00  4.04182E-04  1.0E-07
  1.200E+01  1.09262E-02  2.38141E-16  8.50419E+00  4.18949E-04  1.0E-07
  1.225E+01  1.13844E-02  2.28581E-16  8.16278E+00  4.33855E-04  1.0E-07
  1.250E+01  1.18520E-02  2.19469E-16  7.83737E+00  4.48882E-04  1.0E-07
  1.275E+01  1.23288E-02  2.10780E-16  7.52709E+00  4.64014E-04  1.0E-07
  1.300E+01  1.28150E-02  2.02493E-16  7.23115E+00  4.79230E-04  1.0E-07
  1.325E+01  1.33104E-02  1.94586E-16  6.94878E+00  4.94512E-04  1.0E-07
  1.350E+01  1.38150E-02  1.87039E-16  6.67927E+00  5.09839E-04  1.0E-07
  1.375E+01  1.43290E-02  1.79832E-16  6.42192E+00  5.25191E-04  1.0E-07
  1.400E+01  1.48521E-02  1.72949E-16  6.17611E+00  5.40544E-04  1.0E-07
  1.425E+01  1.53845E-02  1.66371E-16  5.94122E+00  5.55876E-04  1.0E-07
  1.450E+01  1.59262E-02  1.60084E-16  5.71670E+00  5.71163E-04  1.0E-07
  1.475E+01  1.64770E-02  1.54072E-16  5.50200E+00  5.86379E-04  1.0E-07
