 #
 # Subroutine ELSEPA. Elastic scattering of electrons and positrons
 #                    by neutral atoms and positive ions
 #
 # Projectile: electron
 # Kinetic energy = 9.00000E+03 eV = 3.30744E+02 a.u.
 #
 # Element: Cu,  Z =  29,  atomic weight = 6.35460E+01 g/mol
 #
 # Nuclear model: Fermi distribution
 #                Average radius = 4.26986E-13 cm
 #                Skin thickness = 5.46000E-14 cm
 #
 # Number of electrons = 29
 #
 # Electron density: Read from file ./database/z_029.den                                                                                                    
 #                   Number of data points =  771
 #                   Volume integral = 2.90000E+01
 #
 # Furness-McCarthy exchange potential
 #
 # No absorption potential
 #
 # No correlation-polarization potential
 #
 # Integrated cross sections:
 # Total elastic cross section = 3.66412E-17 cm**2 = 1.30848E+00 a0**2
 # 1st transport cross section = 1.26423E-18 cm**2 = 4.51463E-02 a0**2
 # 2nd transport cross section = 2.67977E-18 cm**2 = 9.56962E-02 a0**2
 #
 #
 # Differential cross section:                       MU=(1-COS(THETA))/2
 #
 #  THETA        MU          DCS          DCS        Sherman      error
 #  (deg)                 (cm**2/sr)   (a0**2/sr)    function
 #----------------------------------------------------------------------
  0.000E+00  0.00000E+00  2.52225E-15  9.00712E+01  0.00000E+00  1.0E-07
  1.000E-04  7.61557E-13  2.52225E-15  9.00712E+01  3.95543E-10  1.0E-07
  1.250E-04  1.18994E-12  2.52225E-15  9.00712E+01  4.94429E-10  1.0E-07
  1.500E-04  1.71346E-12  2.52225E-15  9.00712E+01  5.93315E-10  1.0E-07
  1.750E-04  2.33225E-12  2.52225E-15  9.00712E+01  6.92201E-10  1.0E-07
  2.000E-04  3.04617E-12  2.52225E-15  9.00712E+01  7.91087E-10  1.0E-07
  2.250E-04  3.85530E-12  2.52225E-15  9.00712E+01  8.89972E-10  1.0E-07
  2.500E-04  4.75964E-12  2.52225E-15  9.00712E+01  9.88858E-10  1.0E-07
  2.750E-04  5.75917E-12  2.52225E-15  9.00712E+01  1.08774E-09  1.0E-07
  3.000E-04  6.85391E-12  2.52225E-15  9.00712E+01  1.18663E-09  1.0E-07
  3.250E-04  8.04379E-12  2.52225E-15  9.00712E+01  1.28552E-09  1.0E-07
  3.500E-04  9.32893E-12  2.52225E-15  9.00712E+01  1.38440E-09  1.0E-07
  3.750E-04  1.07092E-11  2.52225E-15  9.00712E+01  1.48329E-09  1.0E-07
  4.000E-04  1.21847E-11  2.52225E-15  9.00712E+01  1.58217E-09  1.0E-07
  4.250E-04  1.37554E-11  2.52225E-15  9.00712E+01  1.68106E-09  1.0E-07
  4.500E-04  1.54213E-11  2.52225E-15  9.00712E+01  1.77994E-09  1.0E-07
  4.750E-04  1.71823E-11  2.52225E-15  9.00712E+01  1.87883E-09  1.0E-07
  5.000E-04  1.90386E-11  2.52225E-15  9.00712E+01  1.97772E-09  1.0E-07
  5.250E-04  2.09900E-11  2.52225E-15  9.00712E+01  2.07660E-09  1.0E-07
  5.500E-04  2.30367E-11  2.52225E-15  9.00712E+01  2.17549E-09  1.0E-07
  5.750E-04  2.51785E-11  2.52225E-15  9.00712E+01  2.27437E-09  1.0E-07
  6.000E-04  2.74156E-11  2.52225E-15  9.00712E+01  2.37326E-09  1.0E-07
  6.250E-04  2.97478E-11  2.52225E-15  9.00712E+01  2.47215E-09  1.0E-07
  6.500E-04  3.21752E-11  2.52225E-15  9.00712E+01  2.57103E-09  1.0E-07
  6.750E-04  3.46979E-11  2.52225E-15  9.00712E+01  2.66992E-09  1.0E-07
  7.000E-04  3.73157E-11  2.52225E-15  9.00712E+01  2.76880E-09  1.0E-07
  7.250E-04  4.00286E-11  2.52225E-15  9.00712E+01  2.86769E-09  1.0E-07
  7.500E-04  4.28368E-11  2.52225E-15  9.00712E+01  2.96657E-09  1.0E-07
  7.750E-04  4.57402E-11  2.52225E-15  9.00712E+01  3.06546E-09  1.0E-07
  8.000E-04  4.87388E-11  2.52225E-15  9.00712E+01  3.16435E-09  1.0E-07
  8.250E-04  5.18325E-11  2.52225E-15  9.00712E+01  3.26323E-09  1.0E-07
  8.500E-04  5.50215E-11  2.52225E-15  9.00712E+01  3.36212E-09  1.0E-07
  8.750E-04  5.83057E-11  2.52225E-15  9.00712E+01  3.46100E-09  1.0E-07
  9.000E-04  6.16850E-11  2.52225E-15  9.00712E+01  3.55989E-09  1.0E-07
  9.250E-04  6.51595E-11  2.52225E-15  9.00712E+01  3.65878E-09  1.0E-07
  9.500E-04  6.87293E-11  2.52225E-15  9.00712E+01  3.75766E-09  1.0E-07
  9.750E-04  7.23943E-11  2.52225E-15  9.00712E+01  3.85655E-09  1.0E-07
  1.000E-03  7.61544E-11  2.52225E-15  9.00712E+01  3.95543E-09  1.0E-07
  1.250E-03  1.18991E-10  2.52225E-15  9.00711E+01  4.94429E-09  1.0E-07
  1.500E-03  1.71347E-10  2.52225E-15  9.00711E+01  5.93315E-09  1.0E-07
  1.750E-03  2.33223E-10  2.52225E-15  9.00711E+01  6.92201E-09  1.0E-07
  2.000E-03  3.04617E-10  2.52225E-15  9.00711E+01  7.91087E-09  1.0E-07
  2.250E-03  3.85531E-10  2.52225E-15  9.00711E+01  8.89973E-09  1.0E-07
  2.500E-03  4.75965E-10  2.52225E-15  9.00710E+01  9.88859E-09  1.0E-07
  2.750E-03  5.75917E-10  2.52225E-15  9.00710E+01  1.08775E-08  1.0E-07
  3.000E-03  6.85389E-10  2.52224E-15  9.00710E+01  1.18663E-08  1.0E-07
  3.250E-03  8.04380E-10  2.52224E-15  9.00709E+01  1.28552E-08  1.0E-07
  3.500E-03  9.32891E-10  2.52224E-15  9.00709E+01  1.38440E-08  1.0E-07
  3.750E-03  1.07092E-09  2.52224E-15  9.00709E+01  1.48329E-08  1.0E-07
  4.000E-03  1.21847E-09  2.52224E-15  9.00708E+01  1.58218E-08  1.0E-07
  4.250E-03  1.37554E-09  2.52224E-15  9.00708E+01  1.68106E-08  1.0E-07
  4.500E-03  1.54213E-09  2.52224E-15  9.00707E+01  1.77995E-08  1.0E-07
  4.750E-03  1.71823E-09  2.52224E-15  9.00707E+01  1.87884E-08  1.0E-07
  5.000E-03  1.90386E-09  2.52223E-15  9.00706E+01  1.97772E-08  1.0E-07
  5.250E-03  2.09900E-09  2.52223E-15  9.00706E+01  2.07661E-08  1.0E-07
  5.500E-03  2.30367E-09  2.52223E-15  9.00705E+01  2.17550E-08  1.0E-07
  5.750E-03  2.51785E-09  2.52223E-15  9.00704E+01  2.27438E-08  1.0E-07
  6.000E-03  2.74156E-09  2.52223E-15  9.00704E+01  2.37327E-08  1.0E-07
  6.250E-03  2.97478E-09  2.52223E-15  9.00703E+01  2.47216E-08  1.0E-07
  6.500E-03  3.21752E-09  2.52222E-15  9.00702E+01  2.57105E-08  1.0E-07
  6.750E-03  3.46978E-09  2.52222E-15  9.00702E+01  2.66993E-08  1.0E-07
  7.000E-03  3.73156E-09  2.52222E-15  9.00701E+01  2.76882E-08  1.0E-07
  7.250E-03  4.00286E-09  2.52222E-15  9.00700E+01  2.86771E-08  1.0E-07
  7.500E-03  4.28368E-09  2.52222E-15  9.00699E+01  2.96660E-08  1.0E-07
  7.750E-03  4.57402E-09  2.52221E-15  9.00699E+01  3.06549E-08  1.0E-07
  8.000E-03  4.87388E-09  2.52221E-15  9.00698E+01  3.16437E-08  1.0E-07
  8.250E-03  5.18326E-09  2.52221E-15  9.00697E+01  3.26326E-08  1.0E-07
  8.500E-03  5.50215E-09  2.52221E-15  9.00696E+01  3.36215E-08  1.0E-07
  8.750E-03  5.83057E-09  2.52220E-15  9.00695E+01  3.46104E-08  1.0E-07
  9.000E-03  6.16850E-09  2.52220E-15  9.00694E+01  3.55993E-08  1.0E-07
  9.250E-03  6.51596E-09  2.52220E-15  9.00693E+01  3.65882E-08  1.0E-07
  9.500E-03  6.87293E-09  2.52219E-15  9.00692E+01  3.75771E-08  1.0E-07
  9.750E-03  7.23942E-09  2.52219E-15  9.00691E+01  3.85660E-08  1.0E-07
  1.000E-02  7.61544E-09  2.52219E-15  9.00690E+01  3.95549E-08  1.0E-07
  1.250E-02  1.18991E-08  2.52215E-15  9.00677E+01  4.94440E-08  1.0E-07
  1.500E-02  1.71347E-08  2.52211E-15  9.00662E+01  5.93333E-08  1.0E-07
  1.750E-02  2.33223E-08  2.52206E-15  9.00644E+01  6.92230E-08  1.0E-07
  2.000E-02  3.04617E-08  2.52200E-15  9.00624E+01  7.91130E-08  1.0E-07
  2.250E-02  3.85531E-08  2.52194E-15  9.00600E+01  8.90034E-08  1.0E-07
  2.500E-02  4.75965E-08  2.52186E-15  9.00574E+01  9.88942E-08  1.0E-07
  2.750E-02  5.75917E-08  2.52178E-15  9.00545E+01  1.08786E-07  1.0E-07
  3.000E-02  6.85389E-08  2.52169E-15  9.00513E+01  1.18678E-07  1.0E-07
  3.250E-02  8.04380E-08  2.52160E-15  9.00479E+01  1.28570E-07  1.0E-07
  3.500E-02  9.32891E-08  2.52149E-15  9.00442E+01  1.38463E-07  1.0E-07
  3.750E-02  1.07092E-07  2.52138E-15  9.00402E+01  1.48357E-07  1.0E-07
  4.000E-02  1.21847E-07  2.52126E-15  9.00359E+01  1.58252E-07  1.0E-07
  4.250E-02  1.37554E-07  2.52113E-15  9.00314E+01  1.68147E-07  1.0E-07
  4.500E-02  1.54213E-07  2.52100E-15  9.00265E+01  1.78044E-07  1.0E-07
  4.750E-02  1.71823E-07  2.52086E-15  9.00215E+01  1.87941E-07  1.0E-07
  5.000E-02  1.90386E-07  2.52071E-15  9.00161E+01  1.97839E-07  1.0E-07
  5.250E-02  2.09900E-07  2.52055E-15  9.00104E+01  2.07738E-07  1.0E-07
  5.500E-02  2.30367E-07  2.52038E-15  9.00045E+01  2.17638E-07  1.0E-07
  5.750E-02  2.51785E-07  2.52021E-15  8.99983E+01  2.27540E-07  1.0E-07
  6.000E-02  2.74156E-07  2.52003E-15  8.99919E+01  2.37442E-07  1.0E-07
  6.250E-02  2.97478E-07  2.51984E-15  8.99851E+01  2.47346E-07  1.0E-07
  6.500E-02  3.21752E-07  2.51964E-15  8.99781E+01  2.57251E-07  1.0E-07
  6.750E-02  3.46978E-07  2.51944E-15  8.99708E+01  2.67157E-07  1.0E-07
  7.000E-02  3.73156E-07  2.51923E-15  8.99632E+01  2.77065E-07  1.0E-07
  7.250E-02  4.00286E-07  2.51901E-15  8.99554E+01  2.86974E-07  1.0E-07
  7.500E-02  4.28368E-07  2.51878E-15  8.99473E+01  2.96885E-07  1.0E-07
  7.750E-02  4.57402E-07  2.51855E-15  8.99389E+01  3.06797E-07  1.0E-07
  8.000E-02  4.87388E-07  2.51830E-15  8.99303E+01  3.16710E-07  1.0E-07
  8.250E-02  5.18325E-07  2.51805E-15  8.99213E+01  3.26626E-07  1.0E-07
  8.500E-02  5.50215E-07  2.51780E-15  8.99121E+01  3.36543E-07  1.0E-07
  8.750E-02  5.83057E-07  2.51753E-15  8.99026E+01  3.46461E-07  1.0E-07
  9.000E-02  6.16850E-07  2.51726E-15  8.98929E+01  3.56382E-07  1.0E-07
  9.250E-02  6.51596E-07  2.51698E-15  8.98829E+01  3.66304E-07  1.0E-07
  9.500E-02  6.87293E-07  2.51669E-15  8.98726E+01  3.76228E-07  1.0E-07
  9.750E-02  7.23942E-07  2.51639E-15  8.98620E+01  3.86154E-07  1.0E-07
  1.000E-01  7.61543E-07  2.51609E-15  8.98512E+01  3.96082E-07  1.0E-07
  1.250E-01  1.18991E-06  2.51263E-15  8.97278E+01  4.95481E-07  1.0E-07
  1.500E-01  1.71347E-06  2.50843E-15  8.95775E+01  5.95132E-07  1.0E-07
  1.750E-01  2.33223E-06  2.50347E-15  8.94004E+01  6.95085E-07  1.0E-07
  2.000E-01  3.04617E-06  2.49777E-15  8.91969E+01  7.95391E-07  1.0E-07
  2.250E-01  3.85531E-06  2.49134E-15  8.89672E+01  8.96100E-07  1.0E-07
  2.500E-01  4.75964E-06  2.48418E-15  8.87118E+01  9.97261E-07  1.0E-07
  2.750E-01  5.75916E-06  2.47632E-15  8.84311E+01  1.09892E-06  1.0E-07
  3.000E-01  6.85388E-06  2.46776E-15  8.81254E+01  1.20114E-06  1.0E-07
  3.250E-01  8.04378E-06  2.45852E-15  8.77954E+01  1.30395E-06  1.0E-07
  3.500E-01  9.32888E-06  2.44861E-15  8.74414E+01  1.40742E-06  1.0E-07
  3.750E-01  1.07092E-05  2.43804E-15  8.70641E+01  1.51158E-06  1.0E-07
  4.000E-01  1.21846E-05  2.42684E-15  8.66641E+01  1.61649E-06  1.0E-07
  4.250E-01  1.37553E-05  2.41502E-15  8.62419E+01  1.72220E-06  1.0E-07
  4.500E-01  1.54212E-05  2.40259E-15  8.57982E+01  1.82875E-06  1.0E-07
  4.750E-01  1.71822E-05  2.38958E-15  8.53336E+01  1.93620E-06  1.0E-07
  5.000E-01  1.90385E-05  2.37601E-15  8.48489E+01  2.04458E-06  1.0E-07
  5.250E-01  2.09899E-05  2.36189E-15  8.43447E+01  2.15395E-06  1.0E-07
  5.500E-01  2.30365E-05  2.34725E-15  8.38218E+01  2.26435E-06  1.0E-07
  5.750E-01  2.51783E-05  2.33210E-15  8.32808E+01  2.37583E-06  1.0E-07
  6.000E-01  2.74153E-05  2.31647E-15  8.27226E+01  2.48843E-06  1.0E-07
  6.250E-01  2.97475E-05  2.30038E-15  8.21479E+01  2.60221E-06  1.0E-07
  6.500E-01  3.21749E-05  2.28384E-15  8.15575E+01  2.71720E-06  1.0E-07
  6.750E-01  3.46974E-05  2.26689E-15  8.09521E+01  2.83345E-06  1.0E-07
  7.000E-01  3.73152E-05  2.24954E-15  8.03326E+01  2.95100E-06  1.0E-07
  7.250E-01  4.00281E-05  2.23182E-15  7.96997E+01  3.06991E-06  1.0E-07
  7.500E-01  4.28362E-05  2.21374E-15  7.90542E+01  3.19020E-06  1.0E-07
  7.750E-01  4.57395E-05  2.19533E-15  7.83968E+01  3.31193E-06  1.0E-07
  8.000E-01  4.87380E-05  2.17662E-15  7.77285E+01  3.43513E-06  1.0E-07
  8.250E-01  5.18317E-05  2.15761E-15  7.70497E+01  3.55978E-06  1.0E-07
  8.500E-01  5.50205E-05  2.13835E-15  7.63618E+01  3.68613E-06  1.0E-07
  8.750E-01  5.83045E-05  2.11884E-15  7.56650E+01  3.81401E-06  1.0E-07
  9.000E-01  6.16838E-05  2.09910E-15  7.49602E+01  3.94352E-06  1.0E-07
  9.250E-01  6.51582E-05  2.07916E-15  7.42482E+01  4.07471E-06  1.0E-07
  9.500E-01  6.87277E-05  2.05904E-15  7.35297E+01  4.20762E-06  1.0E-07
  9.750E-01  7.23925E-05  2.03876E-15  7.28055E+01  4.34228E-06  1.0E-07
  1.000E+00  7.61524E-05  2.01834E-15  7.20761E+01  4.47873E-06  1.0E-07
  1.100E+00  9.21439E-05  1.93559E-15  6.91212E+01  5.04315E-06  1.0E-07
  1.200E+00  1.09658E-04  1.85201E-15  6.61365E+01  5.63902E-06  1.0E-07
  1.300E+00  1.28695E-04  1.76860E-15  6.31578E+01  6.26840E-06  1.0E-07
  1.400E+00  1.49255E-04  1.68621E-15  6.02157E+01  6.93315E-06  1.0E-07
  1.500E+00  1.71338E-04  1.60555E-15  5.73353E+01  7.63497E-06  1.0E-07
  1.600E+00  1.94942E-04  1.52718E-15  5.45365E+01  8.37536E-06  1.0E-07
  1.700E+00  2.20070E-04  1.45151E-15  5.18344E+01  9.15576E-06  1.0E-07
  1.800E+00  2.46720E-04  1.37886E-15  4.92400E+01  9.97727E-06  1.0E-07
  1.900E+00  2.74892E-04  1.30942E-15  4.67601E+01  1.08410E-05  1.0E-07
  2.000E+00  3.04586E-04  1.24329E-15  4.43987E+01  1.17480E-05  1.0E-07
  2.100E+00  3.35803E-04  1.18052E-15  4.21570E+01  1.26989E-05  1.0E-07
  2.200E+00  3.68542E-04  1.12107E-15  4.00343E+01  1.36947E-05  1.0E-07
  2.300E+00  4.02802E-04  1.06489E-15  3.80281E+01  1.47359E-05  1.0E-07
  2.400E+00  4.38585E-04  1.01188E-15  3.61348E+01  1.58234E-05  1.0E-07
  2.500E+00  4.75889E-04  9.61896E-16  3.43499E+01  1.69576E-05  1.0E-07
  2.600E+00  5.14715E-04  9.14811E-16  3.26685E+01  1.81393E-05  1.0E-07
  2.700E+00  5.55063E-04  8.70472E-16  3.10851E+01  1.93692E-05  1.0E-07
  2.800E+00  5.96931E-04  8.28724E-16  2.95943E+01  2.06478E-05  1.0E-07
  2.900E+00  6.40321E-04  7.89415E-16  2.81905E+01  2.19759E-05  1.0E-07
  3.000E+00  6.85233E-04  7.52392E-16  2.68684E+01  2.33542E-05  1.0E-07
  3.100E+00  7.31665E-04  7.17508E-16  2.56227E+01  2.47836E-05  1.0E-07
  3.200E+00  7.79618E-04  6.84623E-16  2.44483E+01  2.62647E-05  1.0E-07
  3.300E+00  8.29092E-04  6.53604E-16  2.33406E+01  2.77986E-05  1.0E-07
  3.400E+00  8.80086E-04  6.24325E-16  2.22951E+01  2.93860E-05  1.0E-07
  3.500E+00  9.32601E-04  5.96670E-16  2.13075E+01  3.10282E-05  1.0E-07
  3.600E+00  9.86636E-04  5.70528E-16  2.03739E+01  3.27260E-05  1.0E-07
  3.700E+00  1.04219E-03  5.45797E-16  1.94908E+01  3.44805E-05  1.0E-07
  3.800E+00  1.09927E-03  5.22384E-16  1.86547E+01  3.62930E-05  1.0E-07
  3.900E+00  1.15786E-03  5.00200E-16  1.78625E+01  3.81647E-05  1.0E-07
  4.000E+00  1.21797E-03  4.79165E-16  1.71113E+01  4.00967E-05  1.0E-07
  4.100E+00  1.27961E-03  4.59205E-16  1.63985E+01  4.20904E-05  1.0E-07
  4.200E+00  1.34276E-03  4.40250E-16  1.57216E+01  4.41471E-05  1.0E-07
  4.300E+00  1.40743E-03  4.22238E-16  1.50784E+01  4.62683E-05  1.0E-07
  4.400E+00  1.47362E-03  4.05108E-16  1.44667E+01  4.84553E-05  1.0E-07
  4.500E+00  1.54133E-03  3.88808E-16  1.38846E+01  5.07096E-05  1.0E-07
  4.600E+00  1.61056E-03  3.73288E-16  1.33303E+01  5.30328E-05  1.0E-07
  4.700E+00  1.68131E-03  3.58500E-16  1.28023E+01  5.54263E-05  1.0E-07
  4.800E+00  1.75357E-03  3.44403E-16  1.22989E+01  5.78918E-05  1.0E-07
  4.900E+00  1.82735E-03  3.30957E-16  1.18187E+01  6.04308E-05  1.0E-07
  5.000E+00  1.90265E-03  3.18124E-16  1.13604E+01  6.30450E-05  1.0E-07
  5.100E+00  1.97947E-03  3.05872E-16  1.09229E+01  6.57360E-05  1.0E-07
  5.200E+00  2.05780E-03  2.94168E-16  1.05049E+01  6.85055E-05  1.0E-07
  5.300E+00  2.13765E-03  2.82982E-16  1.01055E+01  7.13552E-05  1.0E-07
  5.400E+00  2.21902E-03  2.72287E-16  9.72356E+00  7.42869E-05  1.0E-07
  5.500E+00  2.30190E-03  2.62058E-16  9.35827E+00  7.73022E-05  1.0E-07
  5.600E+00  2.38630E-03  2.52271E-16  9.00875E+00  8.04029E-05  1.0E-07
  5.700E+00  2.47222E-03  2.42902E-16  8.67419E+00  8.35909E-05  1.0E-07
  5.800E+00  2.55965E-03  2.33932E-16  8.35385E+00  8.68678E-05  1.0E-07
  5.900E+00  2.64859E-03  2.25340E-16  8.04702E+00  9.02355E-05  1.0E-07
  6.000E+00  2.73905E-03  2.17107E-16  7.75305E+00  9.36957E-05  1.0E-07
  6.100E+00  2.83103E-03  2.09218E-16  7.47130E+00  9.72503E-05  1.0E-07
  6.200E+00  2.92452E-03  2.01654E-16  7.20121E+00  1.00901E-04  1.0E-07
  6.300E+00  3.01952E-03  1.94402E-16  6.94221E+00  1.04650E-04  1.0E-07
  6.400E+00  3.11604E-03  1.87445E-16  6.69380E+00  1.08498E-04  1.0E-07
  6.500E+00  3.21407E-03  1.80772E-16  6.45547E+00  1.12448E-04  1.0E-07
  6.600E+00  3.31362E-03  1.74368E-16  6.22678E+00  1.16502E-04  1.0E-07
  6.700E+00  3.41468E-03  1.68221E-16  6.00728E+00  1.20661E-04  1.0E-07
  6.800E+00  3.51725E-03  1.62320E-16  5.79655E+00  1.24926E-04  1.0E-07
  6.900E+00  3.62133E-03  1.56654E-16  5.59422E+00  1.29300E-04  1.0E-07
  7.000E+00  3.72692E-03  1.51213E-16  5.39990E+00  1.33785E-04  1.0E-07
  7.100E+00  3.83403E-03  1.45986E-16  5.21325E+00  1.38382E-04  1.0E-07
  7.200E+00  3.94265E-03  1.40964E-16  5.03392E+00  1.43092E-04  1.0E-07
  7.300E+00  4.05278E-03  1.36139E-16  4.86161E+00  1.47918E-04  1.0E-07
  7.400E+00  4.16442E-03  1.31502E-16  4.69601E+00  1.52861E-04  1.0E-07
  7.500E+00  4.27757E-03  1.27044E-16  4.53684E+00  1.57923E-04  1.0E-07
  7.600E+00  4.39223E-03  1.22759E-16  4.38381E+00  1.63106E-04  1.0E-07
  7.700E+00  4.50840E-03  1.18639E-16  4.23668E+00  1.68410E-04  1.0E-07
  7.800E+00  4.62608E-03  1.14677E-16  4.09520E+00  1.73837E-04  1.0E-07
  7.900E+00  4.74527E-03  1.10867E-16  3.95911E+00  1.79390E-04  1.0E-07
  8.000E+00  4.86597E-03  1.07201E-16  3.82822E+00  1.85068E-04  1.0E-07
  8.100E+00  4.98817E-03  1.03675E-16  3.70229E+00  1.90874E-04  1.0E-07
  8.200E+00  5.11188E-03  1.00282E-16  3.58112E+00  1.96810E-04  1.0E-07
  8.300E+00  5.23711E-03  9.70165E-17  3.46452E+00  2.02875E-04  1.0E-07
  8.400E+00  5.36383E-03  9.38741E-17  3.35230E+00  2.09071E-04  1.0E-07
  8.500E+00  5.49207E-03  9.08493E-17  3.24429E+00  2.15400E-04  1.0E-07
  8.600E+00  5.62181E-03  8.79374E-17  3.14030E+00  2.21863E-04  1.0E-07
  8.700E+00  5.75306E-03  8.51338E-17  3.04018E+00  2.28460E-04  1.0E-07
  8.800E+00  5.88581E-03  8.24342E-17  2.94378E+00  2.35193E-04  1.0E-07
  8.900E+00  6.02007E-03  7.98343E-17  2.85094E+00  2.42062E-04  1.0E-07
  9.000E+00  6.15583E-03  7.73302E-17  2.76151E+00  2.49069E-04  1.0E-07
  9.100E+00  6.29310E-03  7.49181E-17  2.67537E+00  2.56213E-04  1.0E-07
  9.200E+00  6.43187E-03  7.25942E-17  2.59239E+00  2.63496E-04  1.0E-07
  9.300E+00  6.57214E-03  7.03551E-17  2.51243E+00  2.70919E-04  1.0E-07
  9.400E+00  6.71392E-03  6.81974E-17  2.43537E+00  2.78481E-04  1.0E-07
  9.500E+00  6.85720E-03  6.61179E-17  2.36111E+00  2.86183E-04  1.0E-07
  9.600E+00  7.00198E-03  6.41135E-17  2.28953E+00  2.94025E-04  1.0E-07
  9.700E+00  7.14827E-03  6.21812E-17  2.22053E+00  3.02008E-04  1.0E-07
  9.800E+00  7.29605E-03  6.03183E-17  2.15400E+00  3.10133E-04  1.0E-07
  9.900E+00  7.44534E-03  5.85219E-17  2.08986E+00  3.18398E-04  1.0E-07
  1.000E+01  7.59612E-03  5.67896E-17  2.02799E+00  3.26804E-04  1.0E-07
  1.025E+01  7.97965E-03  5.27225E-17  1.88276E+00  3.48435E-04  1.0E-07
  1.050E+01  8.37255E-03  4.90039E-17  1.74996E+00  3.70943E-04  1.0E-07
  1.075E+01  8.77480E-03  4.56009E-17  1.62844E+00  3.94321E-04  1.0E-07
  1.100E+01  9.18641E-03  4.24841E-17  1.51713E+00  4.18558E-04  1.0E-07
  1.125E+01  9.60736E-03  3.96269E-17  1.41510E+00  4.43641E-04  1.0E-07
  1.150E+01  1.00376E-02  3.70053E-17  1.32148E+00  4.69554E-04  1.0E-07
  1.175E+01  1.04773E-02  3.45977E-17  1.23551E+00  4.96276E-04  1.0E-07
  1.200E+01  1.09262E-02  3.23844E-17  1.15647E+00  5.23786E-04  1.0E-07
  1.225E+01  1.13844E-02  3.03478E-17  1.08374E+00  5.52059E-04  1.0E-07
  1.250E+01  1.18520E-02  2.84718E-17  1.01675E+00  5.81068E-04  1.0E-07
  1.275E+01  1.23288E-02  2.67421E-17  9.54978E-01  6.10784E-04  1.0E-07
  1.300E+01  1.28150E-02  2.51455E-17  8.97964E-01  6.41177E-04  1.0E-07
  1.325E+01  1.33104E-02  2.36703E-17  8.45283E-01  6.72216E-04  1.0E-07
  1.350E+01  1.38150E-02  2.23058E-17  7.96554E-01  7.03866E-04  1.0E-07
  1.375E+01  1.43290E-02  2.10422E-17  7.51430E-01  7.36096E-04  1.0E-07
  1.400E+01  1.48521E-02  1.98708E-17  7.09598E-01  7.68870E-04  1.0E-07
  1.425E+01  1.53845E-02  1.87836E-17  6.70775E-01  8.02154E-04  1.0E-07
  1.450E+01  1.59262E-02  1.77735E-17  6.34705E-01  8.35914E-04  1.0E-07
  1.475E+01  1.64770E-02  1.68340E-17  6.01153E-01  8.70115E-04  1.0E-07
