 #
 # Subroutine ELSEPA. Elastic scattering of electrons and positrons
 #                    by neutral atoms and positive ions
 #
 # Projectile: electron
 # Kinetic energy = 1.00000E+03 eV = 3.67493E+01 a.u.
 #
 # Element: Al,  Z =  13,  atomic weight = 2.69815E+01 g/mol
 #
 # Nuclear model: Fermi distribution
 #                Average radius = 3.20927E-13 cm
 #                Skin thickness = 5.46000E-14 cm
 #
 # Number of electrons = 13
 #
 # Electron density: Read from file ./database/z_013.den                                                                                                    
 #                   Number of data points =  801
 #                   Volume integral = 1.30000E+01
 #
 # Muffin-tin model:    Rmt = 1.43000E-08 cm
 #   Atomic density:   Vmol = 6.02370E+22 1/cm**3
 #
 # Furness-McCarthy exchange potential
 #
 # No absorption potential
 #
 # No correlation-polarization potential
 #
 # Integrated cross sections:
 # Total elastic cross section = 8.70744E-17 cm**2 = 3.10948E+00 a0**2
 # 1st transport cross section = 1.18265E-17 cm**2 = 4.22331E-01 a0**2
 # 2nd transport cross section = 1.98400E-17 cm**2 = 7.08498E-01 a0**2
 #
 #
 # Differential cross section:                       MU=(1-COS(THETA))/2
 #
 #  THETA        MU          DCS          DCS        Sherman      error
 #  (deg)                 (cm**2/sr)   (a0**2/sr)    function
 #----------------------------------------------------------------------
  0.000E+00  0.00000E+00  6.67036E-16  2.38203E+01  0.00000E+00  1.0E-07
  1.000E-04  7.61557E-13  6.67036E-16  2.38203E+01  3.12845E-10  1.0E-07
  1.250E-04  1.18994E-12  6.67036E-16  2.38203E+01  3.91056E-10  1.0E-07
  1.500E-04  1.71346E-12  6.67036E-16  2.38203E+01  4.69267E-10  1.0E-07
  1.750E-04  2.33225E-12  6.67036E-16  2.38203E+01  5.47478E-10  1.0E-07
  2.000E-04  3.04617E-12  6.67036E-16  2.38203E+01  6.25689E-10  1.0E-07
  2.250E-04  3.85530E-12  6.67036E-16  2.38203E+01  7.03900E-10  1.0E-07
  2.500E-04  4.75964E-12  6.67036E-16  2.38203E+01  7.82111E-10  1.0E-07
  2.750E-04  5.75917E-12  6.67036E-16  2.38203E+01  8.60323E-10  1.0E-07
  3.000E-04  6.85391E-12  6.67036E-16  2.38203E+01  9.38534E-10  1.0E-07
  3.250E-04  8.04379E-12  6.67036E-16  2.38203E+01  1.01674E-09  1.0E-07
  3.500E-04  9.32893E-12  6.67036E-16  2.38203E+01  1.09496E-09  1.0E-07
  3.750E-04  1.07092E-11  6.67036E-16  2.38203E+01  1.17317E-09  1.0E-07
  4.000E-04  1.21847E-11  6.67036E-16  2.38203E+01  1.25138E-09  1.0E-07
  4.250E-04  1.37554E-11  6.67036E-16  2.38203E+01  1.32959E-09  1.0E-07
  4.500E-04  1.54213E-11  6.67036E-16  2.38203E+01  1.40780E-09  1.0E-07
  4.750E-04  1.71823E-11  6.67036E-16  2.38203E+01  1.48601E-09  1.0E-07
  5.000E-04  1.90386E-11  6.67036E-16  2.38203E+01  1.56422E-09  1.0E-07
  5.250E-04  2.09900E-11  6.67036E-16  2.38203E+01  1.64243E-09  1.0E-07
  5.500E-04  2.30367E-11  6.67036E-16  2.38203E+01  1.72065E-09  1.0E-07
  5.750E-04  2.51785E-11  6.67036E-16  2.38203E+01  1.79886E-09  1.0E-07
  6.000E-04  2.74156E-11  6.67036E-16  2.38203E+01  1.87707E-09  1.0E-07
  6.250E-04  2.97478E-11  6.67036E-16  2.38203E+01  1.95528E-09  1.0E-07
  6.500E-04  3.21752E-11  6.67036E-16  2.38203E+01  2.03349E-09  1.0E-07
  6.750E-04  3.46979E-11  6.67036E-16  2.38203E+01  2.11170E-09  1.0E-07
  7.000E-04  3.73157E-11  6.67036E-16  2.38203E+01  2.18991E-09  1.0E-07
  7.250E-04  4.00286E-11  6.67036E-16  2.38203E+01  2.26812E-09  1.0E-07
  7.500E-04  4.28368E-11  6.67036E-16  2.38203E+01  2.34633E-09  1.0E-07
  7.750E-04  4.57402E-11  6.67036E-16  2.38203E+01  2.42455E-09  1.0E-07
  8.000E-04  4.87388E-11  6.67036E-16  2.38203E+01  2.50276E-09  1.0E-07
  8.250E-04  5.18325E-11  6.67036E-16  2.38203E+01  2.58097E-09  1.0E-07
  8.500E-04  5.50215E-11  6.67036E-16  2.38203E+01  2.65918E-09  1.0E-07
  8.750E-04  5.83057E-11  6.67036E-16  2.38203E+01  2.73739E-09  1.0E-07
  9.000E-04  6.16850E-11  6.67036E-16  2.38203E+01  2.81560E-09  1.0E-07
  9.250E-04  6.51595E-11  6.67036E-16  2.38203E+01  2.89381E-09  1.0E-07
  9.500E-04  6.87293E-11  6.67036E-16  2.38203E+01  2.97202E-09  1.0E-07
  9.750E-04  7.23943E-11  6.67036E-16  2.38203E+01  3.05023E-09  1.0E-07
  1.000E-03  7.61544E-11  6.67036E-16  2.38203E+01  3.12845E-09  1.0E-07
  1.250E-03  1.18991E-10  6.67036E-16  2.38203E+01  3.91056E-09  1.0E-07
  1.500E-03  1.71347E-10  6.67036E-16  2.38203E+01  4.69267E-09  1.0E-07
  1.750E-03  2.33223E-10  6.67036E-16  2.38203E+01  5.47478E-09  1.0E-07
  2.000E-03  3.04617E-10  6.67036E-16  2.38203E+01  6.25689E-09  1.0E-07
  2.250E-03  3.85531E-10  6.67036E-16  2.38203E+01  7.03900E-09  1.0E-07
  2.500E-03  4.75965E-10  6.67036E-16  2.38203E+01  7.82111E-09  1.0E-07
  2.750E-03  5.75917E-10  6.67036E-16  2.38203E+01  8.60323E-09  1.0E-07
  3.000E-03  6.85389E-10  6.67036E-16  2.38203E+01  9.38534E-09  1.0E-07
  3.250E-03  8.04380E-10  6.67036E-16  2.38203E+01  1.01674E-08  1.0E-07
  3.500E-03  9.32891E-10  6.67036E-16  2.38203E+01  1.09496E-08  1.0E-07
  3.750E-03  1.07092E-09  6.67036E-16  2.38203E+01  1.17317E-08  1.0E-07
  4.000E-03  1.21847E-09  6.67036E-16  2.38203E+01  1.25138E-08  1.0E-07
  4.250E-03  1.37554E-09  6.67036E-16  2.38203E+01  1.32959E-08  1.0E-07
  4.500E-03  1.54213E-09  6.67036E-16  2.38203E+01  1.40780E-08  1.0E-07
  4.750E-03  1.71823E-09  6.67036E-16  2.38203E+01  1.48601E-08  1.0E-07
  5.000E-03  1.90386E-09  6.67036E-16  2.38203E+01  1.56422E-08  1.0E-07
  5.250E-03  2.09900E-09  6.67036E-16  2.38203E+01  1.64243E-08  1.0E-07
  5.500E-03  2.30367E-09  6.67036E-16  2.38203E+01  1.72065E-08  1.0E-07
  5.750E-03  2.51785E-09  6.67036E-16  2.38203E+01  1.79886E-08  1.0E-07
  6.000E-03  2.74156E-09  6.67036E-16  2.38203E+01  1.87707E-08  1.0E-07
  6.250E-03  2.97478E-09  6.67036E-16  2.38203E+01  1.95528E-08  1.0E-07
  6.500E-03  3.21752E-09  6.67036E-16  2.38203E+01  2.03349E-08  1.0E-07
  6.750E-03  3.46978E-09  6.67036E-16  2.38203E+01  2.11170E-08  1.0E-07
  7.000E-03  3.73156E-09  6.67036E-16  2.38203E+01  2.18991E-08  1.0E-07
  7.250E-03  4.00286E-09  6.67036E-16  2.38203E+01  2.26812E-08  1.0E-07
  7.500E-03  4.28368E-09  6.67036E-16  2.38203E+01  2.34634E-08  1.0E-07
  7.750E-03  4.57402E-09  6.67036E-16  2.38203E+01  2.42455E-08  1.0E-07
  8.000E-03  4.87388E-09  6.67036E-16  2.38203E+01  2.50276E-08  1.0E-07
  8.250E-03  5.18326E-09  6.67036E-16  2.38203E+01  2.58097E-08  1.0E-07
  8.500E-03  5.50215E-09  6.67036E-16  2.38203E+01  2.65918E-08  1.0E-07
  8.750E-03  5.83057E-09  6.67036E-16  2.38203E+01  2.73739E-08  1.0E-07
  9.000E-03  6.16850E-09  6.67036E-16  2.38203E+01  2.81560E-08  1.0E-07
  9.250E-03  6.51596E-09  6.67036E-16  2.38203E+01  2.89381E-08  1.0E-07
  9.500E-03  6.87293E-09  6.67036E-16  2.38203E+01  2.97203E-08  1.0E-07
  9.750E-03  7.23942E-09  6.67036E-16  2.38203E+01  3.05024E-08  1.0E-07
  1.000E-02  7.61544E-09  6.67035E-16  2.38203E+01  3.12845E-08  1.0E-07
  1.250E-02  1.18991E-08  6.67035E-16  2.38203E+01  3.91056E-08  1.0E-07
  1.500E-02  1.71347E-08  6.67035E-16  2.38202E+01  4.69268E-08  1.0E-07
  1.750E-02  2.33223E-08  6.67034E-16  2.38202E+01  5.47479E-08  1.0E-07
  2.000E-02  3.04617E-08  6.67033E-16  2.38202E+01  6.25691E-08  1.0E-07
  2.250E-02  3.85531E-08  6.67032E-16  2.38202E+01  7.03903E-08  1.0E-07
  2.500E-02  4.75965E-08  6.67031E-16  2.38201E+01  7.82115E-08  1.0E-07
  2.750E-02  5.75917E-08  6.67030E-16  2.38201E+01  8.60327E-08  1.0E-07
  3.000E-02  6.85389E-08  6.67029E-16  2.38200E+01  9.38540E-08  1.0E-07
  3.250E-02  8.04380E-08  6.67028E-16  2.38200E+01  1.01675E-07  1.0E-07
  3.500E-02  9.32891E-08  6.67027E-16  2.38200E+01  1.09497E-07  1.0E-07
  3.750E-02  1.07092E-07  6.67025E-16  2.38199E+01  1.17318E-07  1.0E-07
  4.000E-02  1.21847E-07  6.67024E-16  2.38199E+01  1.25139E-07  1.0E-07
  4.250E-02  1.37554E-07  6.67022E-16  2.38198E+01  1.32961E-07  1.0E-07
  4.500E-02  1.54213E-07  6.67021E-16  2.38197E+01  1.40782E-07  1.0E-07
  4.750E-02  1.71823E-07  6.67019E-16  2.38197E+01  1.48604E-07  1.0E-07
  5.000E-02  1.90386E-07  6.67017E-16  2.38196E+01  1.56425E-07  1.0E-07
  5.250E-02  2.09900E-07  6.67015E-16  2.38195E+01  1.64247E-07  1.0E-07
  5.500E-02  2.30367E-07  6.67013E-16  2.38195E+01  1.72068E-07  1.0E-07
  5.750E-02  2.51785E-07  6.67011E-16  2.38194E+01  1.79890E-07  1.0E-07
  6.000E-02  2.74156E-07  6.67008E-16  2.38193E+01  1.87712E-07  1.0E-07
  6.250E-02  2.97478E-07  6.67006E-16  2.38192E+01  1.95533E-07  1.0E-07
  6.500E-02  3.21752E-07  6.67003E-16  2.38191E+01  2.03355E-07  1.0E-07
  6.750E-02  3.46978E-07  6.67001E-16  2.38190E+01  2.11177E-07  1.0E-07
  7.000E-02  3.73156E-07  6.66998E-16  2.38189E+01  2.18999E-07  1.0E-07
  7.250E-02  4.00286E-07  6.66995E-16  2.38188E+01  2.26821E-07  1.0E-07
  7.500E-02  4.28368E-07  6.66993E-16  2.38187E+01  2.34643E-07  1.0E-07
  7.750E-02  4.57402E-07  6.66990E-16  2.38186E+01  2.42465E-07  1.0E-07
  8.000E-02  4.87388E-07  6.66987E-16  2.38185E+01  2.50287E-07  1.0E-07
  8.250E-02  5.18325E-07  6.66983E-16  2.38184E+01  2.58109E-07  1.0E-07
  8.500E-02  5.50215E-07  6.66980E-16  2.38183E+01  2.65932E-07  1.0E-07
  8.750E-02  5.83057E-07  6.66977E-16  2.38182E+01  2.73754E-07  1.0E-07
  9.000E-02  6.16850E-07  6.66973E-16  2.38181E+01  2.81576E-07  1.0E-07
  9.250E-02  6.51596E-07  6.66970E-16  2.38179E+01  2.89399E-07  1.0E-07
  9.500E-02  6.87293E-07  6.66966E-16  2.38178E+01  2.97221E-07  1.0E-07
  9.750E-02  7.23942E-07  6.66962E-16  2.38177E+01  3.05044E-07  1.0E-07
  1.000E-01  7.61543E-07  6.66959E-16  2.38175E+01  3.12867E-07  1.0E-07
  1.250E-01  1.18991E-06  6.66915E-16  2.38160E+01  3.91099E-07  1.0E-07
  1.500E-01  1.71347E-06  6.66862E-16  2.38141E+01  4.69342E-07  1.0E-07
  1.750E-01  2.33223E-06  6.66798E-16  2.38118E+01  5.47597E-07  1.0E-07
  2.000E-01  3.04617E-06  6.66726E-16  2.38092E+01  6.25867E-07  1.0E-07
  2.250E-01  3.85531E-06  6.66643E-16  2.38063E+01  7.04154E-07  1.0E-07
  2.500E-01  4.75964E-06  6.66551E-16  2.38030E+01  7.82460E-07  1.0E-07
  2.750E-01  5.75916E-06  6.66449E-16  2.37993E+01  8.60786E-07  1.0E-07
  3.000E-01  6.85388E-06  6.66338E-16  2.37954E+01  9.39136E-07  1.0E-07
  3.250E-01  8.04378E-06  6.66217E-16  2.37910E+01  1.01751E-06  1.0E-07
  3.500E-01  9.32888E-06  6.66086E-16  2.37864E+01  1.09591E-06  1.0E-07
  3.750E-01  1.07092E-05  6.65945E-16  2.37813E+01  1.17434E-06  1.0E-07
  4.000E-01  1.21846E-05  6.65795E-16  2.37760E+01  1.25281E-06  1.0E-07
  4.250E-01  1.37553E-05  6.65635E-16  2.37703E+01  1.33130E-06  1.0E-07
  4.500E-01  1.54212E-05  6.65466E-16  2.37642E+01  1.40983E-06  1.0E-07
  4.750E-01  1.71822E-05  6.65287E-16  2.37578E+01  1.48840E-06  1.0E-07
  5.000E-01  1.90385E-05  6.65098E-16  2.37511E+01  1.56701E-06  1.0E-07
  5.250E-01  2.09899E-05  6.64899E-16  2.37440E+01  1.64566E-06  1.0E-07
  5.500E-01  2.30365E-05  6.64691E-16  2.37366E+01  1.72436E-06  1.0E-07
  5.750E-01  2.51783E-05  6.64474E-16  2.37288E+01  1.80310E-06  1.0E-07
  6.000E-01  2.74153E-05  6.64247E-16  2.37207E+01  1.88189E-06  1.0E-07
  6.250E-01  2.97475E-05  6.64010E-16  2.37122E+01  1.96073E-06  1.0E-07
  6.500E-01  3.21749E-05  6.63764E-16  2.37034E+01  2.03962E-06  1.0E-07
  6.750E-01  3.46974E-05  6.63508E-16  2.36943E+01  2.11857E-06  1.0E-07
  7.000E-01  3.73152E-05  6.63242E-16  2.36848E+01  2.19757E-06  1.0E-07
  7.250E-01  4.00281E-05  6.62968E-16  2.36750E+01  2.27663E-06  1.0E-07
  7.500E-01  4.28362E-05  6.62683E-16  2.36648E+01  2.35576E-06  1.0E-07
  7.750E-01  4.57395E-05  6.62389E-16  2.36543E+01  2.43494E-06  1.0E-07
  8.000E-01  4.87380E-05  6.62086E-16  2.36435E+01  2.51419E-06  1.0E-07
  8.250E-01  5.18317E-05  6.61773E-16  2.36323E+01  2.59351E-06  1.0E-07
  8.500E-01  5.50205E-05  6.61450E-16  2.36208E+01  2.67290E-06  1.0E-07
  8.750E-01  5.83045E-05  6.61119E-16  2.36090E+01  2.75236E-06  1.0E-07
  9.000E-01  6.16838E-05  6.60777E-16  2.35968E+01  2.83190E-06  1.0E-07
  9.250E-01  6.51582E-05  6.60427E-16  2.35843E+01  2.91151E-06  1.0E-07
  9.500E-01  6.87277E-05  6.60066E-16  2.35714E+01  2.99119E-06  1.0E-07
  9.750E-01  7.23925E-05  6.59697E-16  2.35582E+01  3.07096E-06  1.0E-07
  1.000E+00  7.61524E-05  6.59318E-16  2.35447E+01  3.15081E-06  1.0E-07
  1.100E+00  9.21439E-05  6.57709E-16  2.34872E+01  3.47108E-06  1.0E-07
  1.200E+00  1.09658E-04  6.55952E-16  2.34245E+01  3.79284E-06  1.0E-07
  1.300E+00  1.28695E-04  6.54048E-16  2.33565E+01  4.11623E-06  1.0E-07
  1.400E+00  1.49255E-04  6.51998E-16  2.32833E+01  4.44140E-06  1.0E-07
  1.500E+00  1.71338E-04  6.49804E-16  2.32049E+01  4.76847E-06  1.0E-07
  1.600E+00  1.94942E-04  6.47467E-16  2.31215E+01  5.09761E-06  1.0E-07
  1.700E+00  2.20070E-04  6.44990E-16  2.30330E+01  5.42895E-06  1.0E-07
  1.800E+00  2.46720E-04  6.42373E-16  2.29395E+01  5.76263E-06  1.0E-07
  1.900E+00  2.74892E-04  6.39619E-16  2.28412E+01  6.09882E-06  1.0E-07
  2.000E+00  3.04586E-04  6.36729E-16  2.27380E+01  6.43765E-06  1.0E-07
  2.100E+00  3.35803E-04  6.33707E-16  2.26301E+01  6.77927E-06  1.0E-07
  2.200E+00  3.68542E-04  6.30554E-16  2.25175E+01  7.12385E-06  1.0E-07
  2.300E+00  4.02802E-04  6.27272E-16  2.24003E+01  7.47153E-06  1.0E-07
  2.400E+00  4.38585E-04  6.23863E-16  2.22786E+01  7.82248E-06  1.0E-07
  2.500E+00  4.75889E-04  6.20331E-16  2.21524E+01  8.17685E-06  1.0E-07
  2.600E+00  5.14715E-04  6.16677E-16  2.20219E+01  8.53481E-06  1.0E-07
  2.700E+00  5.55063E-04  6.12904E-16  2.18872E+01  8.89651E-06  1.0E-07
  2.800E+00  5.96931E-04  6.09015E-16  2.17483E+01  9.26213E-06  1.0E-07
  2.900E+00  6.40321E-04  6.05012E-16  2.16054E+01  9.63183E-06  1.0E-07
  3.000E+00  6.85233E-04  6.00899E-16  2.14585E+01  1.00058E-05  1.0E-07
  3.100E+00  7.31665E-04  5.96678E-16  2.13078E+01  1.03842E-05  1.0E-07
  3.200E+00  7.79618E-04  5.92352E-16  2.11533E+01  1.07672E-05  1.0E-07
  3.300E+00  8.29092E-04  5.87924E-16  2.09951E+01  1.11550E-05  1.0E-07
  3.400E+00  8.80086E-04  5.83396E-16  2.08335E+01  1.15478E-05  1.0E-07
  3.500E+00  9.32601E-04  5.78773E-16  2.06684E+01  1.19457E-05  1.0E-07
  3.600E+00  9.86636E-04  5.74057E-16  2.04999E+01  1.23490E-05  1.0E-07
  3.700E+00  1.04219E-03  5.69251E-16  2.03283E+01  1.27578E-05  1.0E-07
  3.800E+00  1.09927E-03  5.64359E-16  2.01536E+01  1.31724E-05  1.0E-07
  3.900E+00  1.15786E-03  5.59383E-16  1.99759E+01  1.35929E-05  1.0E-07
  4.000E+00  1.21797E-03  5.54327E-16  1.97954E+01  1.40196E-05  1.0E-07
  4.100E+00  1.27961E-03  5.49195E-16  1.96121E+01  1.44527E-05  1.0E-07
  4.200E+00  1.34276E-03  5.43989E-16  1.94262E+01  1.48923E-05  1.0E-07
  4.300E+00  1.40743E-03  5.38712E-16  1.92378E+01  1.53387E-05  1.0E-07
  4.400E+00  1.47362E-03  5.33370E-16  1.90470E+01  1.57922E-05  1.0E-07
  4.500E+00  1.54133E-03  5.27963E-16  1.88539E+01  1.62529E-05  1.0E-07
  4.600E+00  1.61056E-03  5.22497E-16  1.86587E+01  1.67211E-05  1.0E-07
  4.700E+00  1.68131E-03  5.16973E-16  1.84615E+01  1.71970E-05  1.0E-07
  4.800E+00  1.75357E-03  5.11397E-16  1.82623E+01  1.76808E-05  1.0E-07
  4.900E+00  1.82735E-03  5.05771E-16  1.80614E+01  1.81729E-05  1.0E-07
  5.000E+00  1.90265E-03  5.00098E-16  1.78588E+01  1.86734E-05  1.0E-07
  5.100E+00  1.97947E-03  4.94381E-16  1.76547E+01  1.91826E-05  1.0E-07
  5.200E+00  2.05780E-03  4.88625E-16  1.74491E+01  1.97008E-05  1.0E-07
  5.300E+00  2.13765E-03  4.82833E-16  1.72423E+01  2.02283E-05  1.0E-07
  5.400E+00  2.21902E-03  4.77008E-16  1.70342E+01  2.07652E-05  1.0E-07
  5.500E+00  2.30190E-03  4.71152E-16  1.68251E+01  2.13120E-05  1.0E-07
  5.600E+00  2.38630E-03  4.65270E-16  1.66151E+01  2.18689E-05  1.0E-07
  5.700E+00  2.47222E-03  4.59365E-16  1.64042E+01  2.24361E-05  1.0E-07
  5.800E+00  2.55965E-03  4.53440E-16  1.61926E+01  2.30140E-05  1.0E-07
  5.900E+00  2.64859E-03  4.47498E-16  1.59804E+01  2.36029E-05  1.0E-07
  6.000E+00  2.73905E-03  4.41543E-16  1.57678E+01  2.42031E-05  1.0E-07
  6.100E+00  2.83103E-03  4.35576E-16  1.55547E+01  2.48149E-05  1.0E-07
  6.200E+00  2.92452E-03  4.29603E-16  1.53414E+01  2.54386E-05  1.0E-07
  6.300E+00  3.01952E-03  4.23625E-16  1.51279E+01  2.60746E-05  1.0E-07
  6.400E+00  3.11604E-03  4.17646E-16  1.49144E+01  2.67232E-05  1.0E-07
  6.500E+00  3.21407E-03  4.11669E-16  1.47010E+01  2.73847E-05  1.0E-07
  6.600E+00  3.31362E-03  4.05696E-16  1.44877E+01  2.80595E-05  1.0E-07
  6.700E+00  3.41468E-03  3.99731E-16  1.42746E+01  2.87480E-05  1.0E-07
  6.800E+00  3.51725E-03  3.93775E-16  1.40620E+01  2.94505E-05  1.0E-07
  6.900E+00  3.62133E-03  3.87833E-16  1.38498E+01  3.01675E-05  1.0E-07
  7.000E+00  3.72692E-03  3.81907E-16  1.36381E+01  3.08991E-05  1.0E-07
  7.100E+00  3.83403E-03  3.75999E-16  1.34272E+01  3.16460E-05  1.0E-07
  7.200E+00  3.94265E-03  3.70112E-16  1.32169E+01  3.24084E-05  1.0E-07
  7.300E+00  4.05278E-03  3.64248E-16  1.30075E+01  3.31868E-05  1.0E-07
  7.400E+00  4.16442E-03  3.58410E-16  1.27991E+01  3.39816E-05  1.0E-07
  7.500E+00  4.27757E-03  3.52601E-16  1.25916E+01  3.47931E-05  1.0E-07
  7.600E+00  4.39223E-03  3.46822E-16  1.23853E+01  3.56219E-05  1.0E-07
  7.700E+00  4.50840E-03  3.41077E-16  1.21801E+01  3.64683E-05  1.0E-07
  7.800E+00  4.62608E-03  3.35366E-16  1.19761E+01  3.73328E-05  1.0E-07
  7.900E+00  4.74527E-03  3.29692E-16  1.17735E+01  3.82159E-05  1.0E-07
  8.000E+00  4.86597E-03  3.24058E-16  1.15723E+01  3.91179E-05  1.0E-07
  8.100E+00  4.98817E-03  3.18465E-16  1.13726E+01  4.00394E-05  1.0E-07
  8.200E+00  5.11188E-03  3.12916E-16  1.11744E+01  4.09809E-05  1.0E-07
  8.300E+00  5.23711E-03  3.07411E-16  1.09778E+01  4.19427E-05  1.0E-07
  8.400E+00  5.36383E-03  3.01953E-16  1.07829E+01  4.29255E-05  1.0E-07
  8.500E+00  5.49207E-03  2.96543E-16  1.05898E+01  4.39296E-05  1.0E-07
  8.600E+00  5.62181E-03  2.91184E-16  1.03984E+01  4.49556E-05  1.0E-07
  8.700E+00  5.75306E-03  2.85876E-16  1.02088E+01  4.60039E-05  1.0E-07
  8.800E+00  5.88581E-03  2.80622E-16  1.00212E+01  4.70752E-05  1.0E-07
  8.900E+00  6.02007E-03  2.75421E-16  9.83548E+00  4.81698E-05  1.0E-07
  9.000E+00  6.15583E-03  2.70277E-16  9.65177E+00  4.92884E-05  1.0E-07
  9.100E+00  6.29310E-03  2.65190E-16  9.47011E+00  5.04314E-05  1.0E-07
  9.200E+00  6.43187E-03  2.60161E-16  9.29052E+00  5.15993E-05  1.0E-07
  9.300E+00  6.57214E-03  2.55192E-16  9.11306E+00  5.27928E-05  1.0E-07
  9.400E+00  6.71392E-03  2.50282E-16  8.93775E+00  5.40123E-05  1.0E-07
  9.500E+00  6.85720E-03  2.45435E-16  8.76463E+00  5.52584E-05  1.0E-07
  9.600E+00  7.00198E-03  2.40649E-16  8.59374E+00  5.65316E-05  1.0E-07
  9.700E+00  7.14827E-03  2.35927E-16  8.42510E+00  5.78324E-05  1.0E-07
  9.800E+00  7.29605E-03  2.31268E-16  8.25875E+00  5.91615E-05  1.0E-07
  9.900E+00  7.44534E-03  2.26675E-16  8.09470E+00  6.05193E-05  1.0E-07
  1.000E+01  7.59612E-03  2.22146E-16  7.93297E+00  6.19064E-05  1.0E-07
  1.025E+01  7.97965E-03  2.11113E-16  7.53897E+00  6.55059E-05  1.0E-07
  1.050E+01  8.37255E-03  2.00497E-16  7.15988E+00  6.93002E-05  1.0E-07
  1.075E+01  8.77480E-03  1.90303E-16  6.79585E+00  7.32978E-05  1.0E-07
  1.100E+01  9.18641E-03  1.80534E-16  6.44698E+00  7.75066E-05  1.0E-07
  1.125E+01  9.60736E-03  1.71188E-16  6.11325E+00  8.19342E-05  1.0E-07
  1.150E+01  1.00376E-02  1.62265E-16  5.79459E+00  8.65878E-05  1.0E-07
  1.175E+01  1.04773E-02  1.53760E-16  5.49087E+00  9.14739E-05  1.0E-07
  1.200E+01  1.09262E-02  1.45667E-16  5.20188E+00  9.65984E-05  1.0E-07
  1.225E+01  1.13844E-02  1.37980E-16  4.92735E+00  1.01966E-04  1.0E-07
  1.250E+01  1.18520E-02  1.30689E-16  4.66700E+00  1.07581E-04  1.0E-07
  1.275E+01  1.23288E-02  1.23785E-16  4.42045E+00  1.13445E-04  1.0E-07
  1.300E+01  1.28150E-02  1.17257E-16  4.18732E+00  1.19561E-04  1.0E-07
  1.325E+01  1.33104E-02  1.11093E-16  3.96719E+00  1.25928E-04  1.0E-07
  1.350E+01  1.38150E-02  1.05280E-16  3.75960E+00  1.32545E-04  1.0E-07
  1.375E+01  1.43290E-02  9.98043E-17  3.56408E+00  1.39408E-04  1.0E-07
  1.400E+01  1.48521E-02  9.46533E-17  3.38013E+00  1.46513E-04  1.0E-07
  1.425E+01  1.53845E-02  8.98122E-17  3.20725E+00  1.53854E-04  1.0E-07
  1.450E+01  1.59262E-02  8.52668E-17  3.04493E+00  1.61423E-04  1.0E-07
