 #
 # Subroutine ELSEPA. Elastic scattering of electrons and positrons
 #                    by neutral atoms and positive ions
 #
 # Projectile: electron
 # Kinetic energy = 3.50000E+01 eV = 1.28623E+00 a.u.
 #
 #  ***  WARNING: Energy is too low.
 #                The reliability of the results is questionable.
 #
 # Element: Al,  Z =  13,  atomic weight = 2.69815E+01 g/mol
 #
 # Nuclear model: Fermi distribution
 #                Average radius = 3.20927E-13 cm
 #                Skin thickness = 5.46000E-14 cm
 #
 # Number of electrons = 13
 #
 # Electron density: Read from file ./database/z_013.den                                                                                                    
 #                   Number of data points =  801
 #                   Volume integral = 1.30000E+01
 #
 # Muffin-tin model:    Rmt = 1.43000E-08 cm
 #   Atomic density:   Vmol = 6.02370E+22 1/cm**3
 #
 # Furness-McCarthy exchange potential
 #
 # No absorption potential
 #
 # No correlation-polarization potential
 #
 # Integrated cross sections:
 # Total elastic cross section = 3.15210E-16 cm**2 = 1.12564E+01 a0**2
 # 1st transport cross section = 2.56995E-16 cm**2 = 9.17747E+00 a0**2
 # 2nd transport cross section = 2.31900E-16 cm**2 = 8.28130E+00 a0**2
 #
 #
 # Differential cross section:                       MU=(1-COS(THETA))/2
 #
 #  THETA        MU          DCS          DCS        Sherman      error
 #  (deg)                 (cm**2/sr)   (a0**2/sr)    function
 #----------------------------------------------------------------------
  0.000E+00  0.00000E+00  1.68438E-16  6.01504E+00  0.00000E+00  1.0E-07
  1.000E-04  7.61557E-13  1.68438E-16  6.01504E+00 -1.93042E-09  1.0E-07
  1.250E-04  1.18994E-12  1.68438E-16  6.01504E+00 -2.41302E-09  1.0E-07
  1.500E-04  1.71346E-12  1.68438E-16  6.01504E+00 -2.89563E-09  1.0E-07
  1.750E-04  2.33225E-12  1.68438E-16  6.01504E+00 -3.37823E-09  1.0E-07
  2.000E-04  3.04617E-12  1.68438E-16  6.01504E+00 -3.86084E-09  1.0E-07
  2.250E-04  3.85530E-12  1.68438E-16  6.01504E+00 -4.34344E-09  1.0E-07
  2.500E-04  4.75964E-12  1.68438E-16  6.01504E+00 -4.82605E-09  1.0E-07
  2.750E-04  5.75917E-12  1.68438E-16  6.01504E+00 -5.30865E-09  1.0E-07
  3.000E-04  6.85391E-12  1.68438E-16  6.01504E+00 -5.79126E-09  1.0E-07
  3.250E-04  8.04379E-12  1.68438E-16  6.01504E+00 -6.27386E-09  1.0E-07
  3.500E-04  9.32893E-12  1.68438E-16  6.01504E+00 -6.75646E-09  1.0E-07
  3.750E-04  1.07092E-11  1.68438E-16  6.01504E+00 -7.23907E-09  1.0E-07
  4.000E-04  1.21847E-11  1.68438E-16  6.01504E+00 -7.72167E-09  1.0E-07
  4.250E-04  1.37554E-11  1.68438E-16  6.01504E+00 -8.20428E-09  1.0E-07
  4.500E-04  1.54213E-11  1.68438E-16  6.01504E+00 -8.68688E-09  1.0E-07
  4.750E-04  1.71823E-11  1.68438E-16  6.01504E+00 -9.16949E-09  1.0E-07
  5.000E-04  1.90386E-11  1.68438E-16  6.01504E+00 -9.65209E-09  1.0E-07
  5.250E-04  2.09900E-11  1.68438E-16  6.01504E+00 -1.01347E-08  1.0E-07
  5.500E-04  2.30367E-11  1.68438E-16  6.01504E+00 -1.06173E-08  1.0E-07
  5.750E-04  2.51785E-11  1.68438E-16  6.01504E+00 -1.10999E-08  1.0E-07
  6.000E-04  2.74156E-11  1.68438E-16  6.01504E+00 -1.15825E-08  1.0E-07
  6.250E-04  2.97478E-11  1.68438E-16  6.01504E+00 -1.20651E-08  1.0E-07
  6.500E-04  3.21752E-11  1.68438E-16  6.01504E+00 -1.25477E-08  1.0E-07
  6.750E-04  3.46979E-11  1.68438E-16  6.01504E+00 -1.30303E-08  1.0E-07
  7.000E-04  3.73157E-11  1.68438E-16  6.01504E+00 -1.35129E-08  1.0E-07
  7.250E-04  4.00286E-11  1.68438E-16  6.01504E+00 -1.39955E-08  1.0E-07
  7.500E-04  4.28368E-11  1.68438E-16  6.01504E+00 -1.44781E-08  1.0E-07
  7.750E-04  4.57402E-11  1.68438E-16  6.01504E+00 -1.49607E-08  1.0E-07
  8.000E-04  4.87388E-11  1.68438E-16  6.01504E+00 -1.54433E-08  1.0E-07
  8.250E-04  5.18325E-11  1.68438E-16  6.01504E+00 -1.59260E-08  1.0E-07
  8.500E-04  5.50215E-11  1.68438E-16  6.01504E+00 -1.64086E-08  1.0E-07
  8.750E-04  5.83057E-11  1.68438E-16  6.01504E+00 -1.68912E-08  1.0E-07
  9.000E-04  6.16850E-11  1.68438E-16  6.01504E+00 -1.73738E-08  1.0E-07
  9.250E-04  6.51595E-11  1.68438E-16  6.01504E+00 -1.78564E-08  1.0E-07
  9.500E-04  6.87293E-11  1.68438E-16  6.01504E+00 -1.83390E-08  1.0E-07
  9.750E-04  7.23943E-11  1.68438E-16  6.01504E+00 -1.88216E-08  1.0E-07
  1.000E-03  7.61544E-11  1.68438E-16  6.01504E+00 -1.93042E-08  1.0E-07
  1.250E-03  1.18991E-10  1.68438E-16  6.01504E+00 -2.41302E-08  1.0E-07
  1.500E-03  1.71347E-10  1.68438E-16  6.01504E+00 -2.89563E-08  1.0E-07
  1.750E-03  2.33223E-10  1.68438E-16  6.01504E+00 -3.37823E-08  1.0E-07
  2.000E-03  3.04617E-10  1.68438E-16  6.01504E+00 -3.86084E-08  1.0E-07
  2.250E-03  3.85531E-10  1.68438E-16  6.01504E+00 -4.34344E-08  1.0E-07
  2.500E-03  4.75965E-10  1.68438E-16  6.01504E+00 -4.82605E-08  1.0E-07
  2.750E-03  5.75917E-10  1.68438E-16  6.01504E+00 -5.30865E-08  1.0E-07
  3.000E-03  6.85389E-10  1.68438E-16  6.01504E+00 -5.79126E-08  1.0E-07
  3.250E-03  8.04380E-10  1.68438E-16  6.01504E+00 -6.27386E-08  1.0E-07
  3.500E-03  9.32891E-10  1.68438E-16  6.01504E+00 -6.75646E-08  1.0E-07
  3.750E-03  1.07092E-09  1.68438E-16  6.01504E+00 -7.23907E-08  1.0E-07
  4.000E-03  1.21847E-09  1.68438E-16  6.01504E+00 -7.72167E-08  1.0E-07
  4.250E-03  1.37554E-09  1.68438E-16  6.01504E+00 -8.20428E-08  1.0E-07
  4.500E-03  1.54213E-09  1.68438E-16  6.01504E+00 -8.68688E-08  1.0E-07
  4.750E-03  1.71823E-09  1.68438E-16  6.01504E+00 -9.16949E-08  1.0E-07
  5.000E-03  1.90386E-09  1.68438E-16  6.01504E+00 -9.65209E-08  1.0E-07
  5.250E-03  2.09900E-09  1.68438E-16  6.01504E+00 -1.01347E-07  1.0E-07
  5.500E-03  2.30367E-09  1.68438E-16  6.01504E+00 -1.06173E-07  1.0E-07
  5.750E-03  2.51785E-09  1.68438E-16  6.01504E+00 -1.10999E-07  1.0E-07
  6.000E-03  2.74156E-09  1.68438E-16  6.01504E+00 -1.15825E-07  1.0E-07
  6.250E-03  2.97478E-09  1.68438E-16  6.01504E+00 -1.20651E-07  1.0E-07
  6.500E-03  3.21752E-09  1.68438E-16  6.01504E+00 -1.25477E-07  1.0E-07
  6.750E-03  3.46978E-09  1.68438E-16  6.01504E+00 -1.30303E-07  1.0E-07
  7.000E-03  3.73156E-09  1.68438E-16  6.01504E+00 -1.35129E-07  1.0E-07
  7.250E-03  4.00286E-09  1.68438E-16  6.01504E+00 -1.39955E-07  1.0E-07
  7.500E-03  4.28368E-09  1.68438E-16  6.01504E+00 -1.44781E-07  1.0E-07
  7.750E-03  4.57402E-09  1.68438E-16  6.01504E+00 -1.49607E-07  1.0E-07
  8.000E-03  4.87388E-09  1.68438E-16  6.01504E+00 -1.54433E-07  1.0E-07
  8.250E-03  5.18326E-09  1.68438E-16  6.01504E+00 -1.59260E-07  1.0E-07
  8.500E-03  5.50215E-09  1.68438E-16  6.01504E+00 -1.64086E-07  1.0E-07
  8.750E-03  5.83057E-09  1.68438E-16  6.01504E+00 -1.68912E-07  1.0E-07
  9.000E-03  6.16850E-09  1.68438E-16  6.01504E+00 -1.73738E-07  1.0E-07
  9.250E-03  6.51596E-09  1.68438E-16  6.01504E+00 -1.78564E-07  1.0E-07
  9.500E-03  6.87293E-09  1.68438E-16  6.01504E+00 -1.83390E-07  1.0E-07
  9.750E-03  7.23942E-09  1.68438E-16  6.01504E+00 -1.88216E-07  1.0E-07
  1.000E-02  7.61544E-09  1.68438E-16  6.01504E+00 -1.93042E-07  1.0E-07
  1.250E-02  1.18991E-08  1.68438E-16  6.01504E+00 -2.41302E-07  1.0E-07
  1.500E-02  1.71347E-08  1.68438E-16  6.01504E+00 -2.89563E-07  1.0E-07
  1.750E-02  2.33223E-08  1.68438E-16  6.01504E+00 -3.37823E-07  1.0E-07
  2.000E-02  3.04617E-08  1.68438E-16  6.01504E+00 -3.86084E-07  1.0E-07
  2.250E-02  3.85531E-08  1.68438E-16  6.01504E+00 -4.34344E-07  1.0E-07
  2.500E-02  4.75965E-08  1.68438E-16  6.01504E+00 -4.82605E-07  1.0E-07
  2.750E-02  5.75917E-08  1.68438E-16  6.01504E+00 -5.30865E-07  1.0E-07
  3.000E-02  6.85389E-08  1.68438E-16  6.01504E+00 -5.79126E-07  1.0E-07
  3.250E-02  8.04380E-08  1.68438E-16  6.01503E+00 -6.27387E-07  1.0E-07
  3.500E-02  9.32891E-08  1.68438E-16  6.01503E+00 -6.75647E-07  1.0E-07
  3.750E-02  1.07092E-07  1.68438E-16  6.01503E+00 -7.23908E-07  1.0E-07
  4.000E-02  1.21847E-07  1.68438E-16  6.01503E+00 -7.72169E-07  1.0E-07
  4.250E-02  1.37554E-07  1.68438E-16  6.01503E+00 -8.20429E-07  1.0E-07
  4.500E-02  1.54213E-07  1.68438E-16  6.01503E+00 -8.68690E-07  1.0E-07
  4.750E-02  1.71823E-07  1.68438E-16  6.01503E+00 -9.16951E-07  1.0E-07
  5.000E-02  1.90386E-07  1.68438E-16  6.01502E+00 -9.65211E-07  1.0E-07
  5.250E-02  2.09900E-07  1.68438E-16  6.01502E+00 -1.01347E-06  1.0E-07
  5.500E-02  2.30367E-07  1.68438E-16  6.01502E+00 -1.06173E-06  1.0E-07
  5.750E-02  2.51785E-07  1.68438E-16  6.01502E+00 -1.10999E-06  1.0E-07
  6.000E-02  2.74156E-07  1.68438E-16  6.01502E+00 -1.15825E-06  1.0E-07
  6.250E-02  2.97478E-07  1.68438E-16  6.01501E+00 -1.20652E-06  1.0E-07
  6.500E-02  3.21752E-07  1.68438E-16  6.01501E+00 -1.25478E-06  1.0E-07
  6.750E-02  3.46978E-07  1.68437E-16  6.01501E+00 -1.30304E-06  1.0E-07
  7.000E-02  3.73156E-07  1.68437E-16  6.01501E+00 -1.35130E-06  1.0E-07
  7.250E-02  4.00286E-07  1.68437E-16  6.01501E+00 -1.39956E-06  1.0E-07
  7.500E-02  4.28368E-07  1.68437E-16  6.01500E+00 -1.44782E-06  1.0E-07
  7.750E-02  4.57402E-07  1.68437E-16  6.01500E+00 -1.49608E-06  1.0E-07
  8.000E-02  4.87388E-07  1.68437E-16  6.01500E+00 -1.54434E-06  1.0E-07
  8.250E-02  5.18325E-07  1.68437E-16  6.01500E+00 -1.59260E-06  1.0E-07
  8.500E-02  5.50215E-07  1.68437E-16  6.01499E+00 -1.64087E-06  1.0E-07
  8.750E-02  5.83057E-07  1.68437E-16  6.01499E+00 -1.68913E-06  1.0E-07
  9.000E-02  6.16850E-07  1.68437E-16  6.01499E+00 -1.73739E-06  1.0E-07
  9.250E-02  6.51596E-07  1.68437E-16  6.01498E+00 -1.78565E-06  1.0E-07
  9.500E-02  6.87293E-07  1.68437E-16  6.01498E+00 -1.83391E-06  1.0E-07
  9.750E-02  7.23942E-07  1.68437E-16  6.01498E+00 -1.88217E-06  1.0E-07
  1.000E-01  7.61543E-07  1.68436E-16  6.01497E+00 -1.93044E-06  1.0E-07
  1.250E-01  1.18991E-06  1.68435E-16  6.01494E+00 -2.41306E-06  1.0E-07
  1.500E-01  1.71347E-06  1.68434E-16  6.01489E+00 -2.89569E-06  1.0E-07
  1.750E-01  2.33223E-06  1.68432E-16  6.01483E+00 -3.37832E-06  1.0E-07
  2.000E-01  3.04617E-06  1.68431E-16  6.01477E+00 -3.86097E-06  1.0E-07
  2.250E-01  3.85531E-06  1.68429E-16  6.01470E+00 -4.34364E-06  1.0E-07
  2.500E-01  4.75964E-06  1.68426E-16  6.01462E+00 -4.82632E-06  1.0E-07
  2.750E-01  5.75916E-06  1.68424E-16  6.01453E+00 -5.30901E-06  1.0E-07
  3.000E-01  6.85388E-06  1.68421E-16  6.01443E+00 -5.79172E-06  1.0E-07
  3.250E-01  8.04378E-06  1.68418E-16  6.01432E+00 -6.27445E-06  1.0E-07
  3.500E-01  9.32888E-06  1.68415E-16  6.01421E+00 -6.75720E-06  1.0E-07
  3.750E-01  1.07092E-05  1.68411E-16  6.01408E+00 -7.23998E-06  1.0E-07
  4.000E-01  1.21846E-05  1.68408E-16  6.01395E+00 -7.72278E-06  1.0E-07
  4.250E-01  1.37553E-05  1.68404E-16  6.01381E+00 -8.20560E-06  1.0E-07
  4.500E-01  1.54212E-05  1.68400E-16  6.01366E+00 -8.68845E-06  1.0E-07
  4.750E-01  1.71822E-05  1.68395E-16  6.01350E+00 -9.17133E-06  1.0E-07
  5.000E-01  1.90385E-05  1.68391E-16  6.01334E+00 -9.65424E-06  1.0E-07
  5.250E-01  2.09899E-05  1.68386E-16  6.01316E+00 -1.01372E-05  1.0E-07
  5.500E-01  2.30365E-05  1.68381E-16  6.01298E+00 -1.06202E-05  1.0E-07
  5.750E-01  2.51783E-05  1.68375E-16  6.01279E+00 -1.11032E-05  1.0E-07
  6.000E-01  2.74153E-05  1.68370E-16  6.01259E+00 -1.15862E-05  1.0E-07
  6.250E-01  2.97475E-05  1.68364E-16  6.01238E+00 -1.20693E-05  1.0E-07
  6.500E-01  3.21749E-05  1.68358E-16  6.01216E+00 -1.25524E-05  1.0E-07
  6.750E-01  3.46974E-05  1.68351E-16  6.01194E+00 -1.30356E-05  1.0E-07
  7.000E-01  3.73152E-05  1.68345E-16  6.01170E+00 -1.35188E-05  1.0E-07
  7.250E-01  4.00281E-05  1.68338E-16  6.01146E+00 -1.40021E-05  1.0E-07
  7.500E-01  4.28362E-05  1.68331E-16  6.01121E+00 -1.44854E-05  1.0E-07
  7.750E-01  4.57395E-05  1.68324E-16  6.01095E+00 -1.49688E-05  1.0E-07
  8.000E-01  4.87380E-05  1.68316E-16  6.01068E+00 -1.54522E-05  1.0E-07
  8.250E-01  5.18317E-05  1.68309E-16  6.01041E+00 -1.59356E-05  1.0E-07
  8.500E-01  5.50205E-05  1.68301E-16  6.01012E+00 -1.64191E-05  1.0E-07
  8.750E-01  5.83045E-05  1.68292E-16  6.00983E+00 -1.69027E-05  1.0E-07
  9.000E-01  6.16838E-05  1.68284E-16  6.00953E+00 -1.73863E-05  1.0E-07
  9.250E-01  6.51582E-05  1.68275E-16  6.00922E+00 -1.78700E-05  1.0E-07
  9.500E-01  6.87277E-05  1.68266E-16  6.00890E+00 -1.83537E-05  1.0E-07
  9.750E-01  7.23925E-05  1.68257E-16  6.00857E+00 -1.88375E-05  1.0E-07
  1.000E+00  7.61524E-05  1.68248E-16  6.00823E+00 -1.93214E-05  1.0E-07
  1.100E+00  9.21439E-05  1.68208E-16  6.00680E+00 -2.12575E-05  1.0E-07
  1.200E+00  1.09658E-04  1.68164E-16  6.00524E+00 -2.31948E-05  1.0E-07
  1.300E+00  1.28695E-04  1.68116E-16  6.00354E+00 -2.51333E-05  1.0E-07
  1.400E+00  1.49255E-04  1.68065E-16  6.00170E+00 -2.70731E-05  1.0E-07
  1.500E+00  1.71338E-04  1.68010E-16  5.99973E+00 -2.90144E-05  1.0E-07
  1.600E+00  1.94942E-04  1.67951E-16  5.99762E+00 -3.09573E-05  1.0E-07
  1.700E+00  2.20070E-04  1.67888E-16  5.99538E+00 -3.29018E-05  1.0E-07
  1.800E+00  2.46720E-04  1.67821E-16  5.99300E+00 -3.48480E-05  1.0E-07
  1.900E+00  2.74892E-04  1.67751E-16  5.99049E+00 -3.67962E-05  1.0E-07
  2.000E+00  3.04586E-04  1.67677E-16  5.98784E+00 -3.87463E-05  1.0E-07
  2.100E+00  3.35803E-04  1.67599E-16  5.98506E+00 -4.06985E-05  1.0E-07
  2.200E+00  3.68542E-04  1.67517E-16  5.98215E+00 -4.26528E-05  1.0E-07
  2.300E+00  4.02802E-04  1.67432E-16  5.97910E+00 -4.46095E-05  1.0E-07
  2.400E+00  4.38585E-04  1.67343E-16  5.97591E+00 -4.65686E-05  1.0E-07
  2.500E+00  4.75889E-04  1.67250E-16  5.97259E+00 -4.85301E-05  1.0E-07
  2.600E+00  5.14715E-04  1.67153E-16  5.96914E+00 -5.04943E-05  1.0E-07
  2.700E+00  5.55063E-04  1.67052E-16  5.96555E+00 -5.24612E-05  1.0E-07
  2.800E+00  5.96931E-04  1.66948E-16  5.96183E+00 -5.44309E-05  1.0E-07
  2.900E+00  6.40321E-04  1.66840E-16  5.95798E+00 -5.64035E-05  1.0E-07
  3.000E+00  6.85233E-04  1.66729E-16  5.95399E+00 -5.83792E-05  1.0E-07
  3.100E+00  7.31665E-04  1.66613E-16  5.94987E+00 -6.03580E-05  1.0E-07
  3.200E+00  7.79618E-04  1.66494E-16  5.94562E+00 -6.23401E-05  1.0E-07
  3.300E+00  8.29092E-04  1.66372E-16  5.94124E+00 -6.43255E-05  1.0E-07
  3.400E+00  8.80086E-04  1.66245E-16  5.93672E+00 -6.63144E-05  1.0E-07
  3.500E+00  9.32601E-04  1.66115E-16  5.93207E+00 -6.83069E-05  1.0E-07
  3.600E+00  9.86636E-04  1.65981E-16  5.92730E+00 -7.03031E-05  1.0E-07
  3.700E+00  1.04219E-03  1.65844E-16  5.92238E+00 -7.23030E-05  1.0E-07
  3.800E+00  1.09927E-03  1.65702E-16  5.91734E+00 -7.43069E-05  1.0E-07
  3.900E+00  1.15786E-03  1.65558E-16  5.91217E+00 -7.63148E-05  1.0E-07
  4.000E+00  1.21797E-03  1.65409E-16  5.90687E+00 -7.83269E-05  1.0E-07
  4.100E+00  1.27961E-03  1.65257E-16  5.90143E+00 -8.03431E-05  1.0E-07
  4.200E+00  1.34276E-03  1.65101E-16  5.89587E+00 -8.23638E-05  1.0E-07
  4.300E+00  1.40743E-03  1.64942E-16  5.89018E+00 -8.43889E-05  1.0E-07
  4.400E+00  1.47362E-03  1.64779E-16  5.88436E+00 -8.64186E-05  1.0E-07
  4.500E+00  1.54133E-03  1.64612E-16  5.87841E+00 -8.84530E-05  1.0E-07
  4.600E+00  1.61056E-03  1.64442E-16  5.87233E+00 -9.04922E-05  1.0E-07
  4.700E+00  1.68131E-03  1.64268E-16  5.86612E+00 -9.25363E-05  1.0E-07
  4.800E+00  1.75357E-03  1.64091E-16  5.85979E+00 -9.45854E-05  1.0E-07
  4.900E+00  1.82735E-03  1.63910E-16  5.85332E+00 -9.66397E-05  1.0E-07
  5.000E+00  1.90265E-03  1.63725E-16  5.84674E+00 -9.86993E-05  1.0E-07
  5.100E+00  1.97947E-03  1.63537E-16  5.84002E+00 -1.00764E-04  1.0E-07
  5.200E+00  2.05780E-03  1.63346E-16  5.83318E+00 -1.02835E-04  1.0E-07
  5.300E+00  2.13765E-03  1.63150E-16  5.82621E+00 -1.04911E-04  1.0E-07
  5.400E+00  2.21902E-03  1.62952E-16  5.81911E+00 -1.06993E-04  1.0E-07
  5.500E+00  2.30190E-03  1.62750E-16  5.81189E+00 -1.09080E-04  1.0E-07
  5.600E+00  2.38630E-03  1.62544E-16  5.80455E+00 -1.11174E-04  1.0E-07
  5.700E+00  2.47222E-03  1.62335E-16  5.79708E+00 -1.13274E-04  1.0E-07
  5.800E+00  2.55965E-03  1.62122E-16  5.78949E+00 -1.15380E-04  1.0E-07
  5.900E+00  2.64859E-03  1.61906E-16  5.78177E+00 -1.17492E-04  1.0E-07
  6.000E+00  2.73905E-03  1.61687E-16  5.77393E+00 -1.19611E-04  1.0E-07
  6.100E+00  2.83103E-03  1.61464E-16  5.76597E+00 -1.21736E-04  1.0E-07
  6.200E+00  2.92452E-03  1.61237E-16  5.75789E+00 -1.23869E-04  1.0E-07
  6.300E+00  3.01952E-03  1.61007E-16  5.74968E+00 -1.26008E-04  1.0E-07
  6.400E+00  3.11604E-03  1.60774E-16  5.74135E+00 -1.28154E-04  1.0E-07
  6.500E+00  3.21407E-03  1.60538E-16  5.73290E+00 -1.30307E-04  1.0E-07
  6.600E+00  3.31362E-03  1.60298E-16  5.72434E+00 -1.32467E-04  1.0E-07
  6.700E+00  3.41468E-03  1.60054E-16  5.71565E+00 -1.34634E-04  1.0E-07
  6.800E+00  3.51725E-03  1.59808E-16  5.70684E+00 -1.36809E-04  1.0E-07
  6.900E+00  3.62133E-03  1.59558E-16  5.69791E+00 -1.38992E-04  1.0E-07
  7.000E+00  3.72692E-03  1.59304E-16  5.68887E+00 -1.41182E-04  1.0E-07
  7.100E+00  3.83403E-03  1.59048E-16  5.67970E+00 -1.43381E-04  1.0E-07
  7.200E+00  3.94265E-03  1.58788E-16  5.67042E+00 -1.45587E-04  1.0E-07
  7.300E+00  4.05278E-03  1.58525E-16  5.66102E+00 -1.47801E-04  1.0E-07
  7.400E+00  4.16442E-03  1.58258E-16  5.65151E+00 -1.50024E-04  1.0E-07
  7.500E+00  4.27757E-03  1.57989E-16  5.64188E+00 -1.52255E-04  1.0E-07
  7.600E+00  4.39223E-03  1.57716E-16  5.63214E+00 -1.54494E-04  1.0E-07
  7.700E+00  4.50840E-03  1.57440E-16  5.62228E+00 -1.56743E-04  1.0E-07
  7.800E+00  4.62608E-03  1.57160E-16  5.61230E+00 -1.59000E-04  1.0E-07
  7.900E+00  4.74527E-03  1.56878E-16  5.60221E+00 -1.61266E-04  1.0E-07
  8.000E+00  4.86597E-03  1.56592E-16  5.59201E+00 -1.63541E-04  1.0E-07
  8.100E+00  4.98817E-03  1.56303E-16  5.58170E+00 -1.65825E-04  1.0E-07
  8.200E+00  5.11188E-03  1.56012E-16  5.57127E+00 -1.68119E-04  1.0E-07
  8.300E+00  5.23711E-03  1.55716E-16  5.56073E+00 -1.70422E-04  1.0E-07
  8.400E+00  5.36383E-03  1.55418E-16  5.55009E+00 -1.72735E-04  1.0E-07
  8.500E+00  5.49207E-03  1.55117E-16  5.53933E+00 -1.75057E-04  1.0E-07
  8.600E+00  5.62181E-03  1.54813E-16  5.52846E+00 -1.77390E-04  1.0E-07
  8.700E+00  5.75306E-03  1.54505E-16  5.51748E+00 -1.79732E-04  1.0E-07
  8.800E+00  5.88581E-03  1.54195E-16  5.50640E+00 -1.82085E-04  1.0E-07
  8.900E+00  6.02007E-03  1.53881E-16  5.49520E+00 -1.84448E-04  1.0E-07
  9.000E+00  6.15583E-03  1.53565E-16  5.48390E+00 -1.86822E-04  1.0E-07
  9.100E+00  6.29310E-03  1.53246E-16  5.47250E+00 -1.89207E-04  1.0E-07
  9.200E+00  6.43187E-03  1.52923E-16  5.46098E+00 -1.91602E-04  1.0E-07
  9.300E+00  6.57214E-03  1.52598E-16  5.44936E+00 -1.94008E-04  1.0E-07
  9.400E+00  6.71392E-03  1.52269E-16  5.43764E+00 -1.96426E-04  1.0E-07
  9.500E+00  6.85720E-03  1.51938E-16  5.42581E+00 -1.98854E-04  1.0E-07
  9.600E+00  7.00198E-03  1.51604E-16  5.41388E+00 -2.01295E-04  1.0E-07
  9.700E+00  7.14827E-03  1.51267E-16  5.40185E+00 -2.03746E-04  1.0E-07
  9.800E+00  7.29605E-03  1.50927E-16  5.38971E+00 -2.06210E-04  1.0E-07
  9.900E+00  7.44534E-03  1.50585E-16  5.37748E+00 -2.08686E-04  1.0E-07
  1.000E+01  7.59612E-03  1.50239E-16  5.36514E+00 -2.11173E-04  1.0E-07
  1.025E+01  7.97965E-03  1.49363E-16  5.33386E+00 -2.17446E-04  1.0E-07
  1.050E+01  8.37255E-03  1.48470E-16  5.30196E+00 -2.23799E-04  1.0E-07
  1.075E+01  8.77480E-03  1.47560E-16  5.26946E+00 -2.30233E-04  1.0E-07
  1.100E+01  9.18641E-03  1.46633E-16  5.23636E+00 -2.36753E-04  1.0E-07
  1.125E+01  9.60736E-03  1.45690E-16  5.20269E+00 -2.43359E-04  1.0E-07
  1.150E+01  1.00376E-02  1.44731E-16  5.16844E+00 -2.50056E-04  1.0E-07
  1.175E+01  1.04773E-02  1.43756E-16  5.13363E+00 -2.56847E-04  1.0E-07
  1.200E+01  1.09262E-02  1.42766E-16  5.09828E+00 -2.63733E-04  1.0E-07
  1.225E+01  1.13844E-02  1.41761E-16  5.06239E+00 -2.70719E-04  1.0E-07
  1.250E+01  1.18520E-02  1.40742E-16  5.02598E+00 -2.77807E-04  1.0E-07
  1.275E+01  1.23288E-02  1.39708E-16  4.98905E+00 -2.85002E-04  1.0E-07
  1.300E+01  1.28150E-02  1.38660E-16  4.95163E+00 -2.92305E-04  1.0E-07
  1.325E+01  1.33104E-02  1.37598E-16  4.91372E+00 -2.99720E-04  1.0E-07
  1.350E+01  1.38150E-02  1.36523E-16  4.87533E+00 -3.07252E-04  1.0E-07
  1.375E+01  1.43290E-02  1.35435E-16  4.83649E+00 -3.14903E-04  1.0E-07
  1.400E+01  1.48521E-02  1.34335E-16  4.79719E+00 -3.22677E-04  1.0E-07
