 #
 # Subroutine ELSEPA. Elastic scattering of electrons and positrons
 #                    by neutral atoms and positive ions
 #
 # Projectile: electron
 # Kinetic energy = 9.00000E+04 eV = 3.30744E+03 a.u.
 #
 # Element: Fe,  Z =  26,  atomic weight = 5.58450E+01 g/mol
 #
 # Nuclear model: Fermi distribution
 #                Average radius = 4.08989E-13 cm
 #                Skin thickness = 5.46000E-14 cm
 #
 # Number of electrons = 26
 #
 # Electron density: Read from file ./database/z_026.den                                                                                                    
 #                   Number of data points =  763
 #                   Volume integral = 2.60000E+01
 #
 # Furness-McCarthy exchange potential
 #
 # No absorption potential
 #
 # No correlation-polarization potential
 #
 # Integrated cross sections:
 # Total elastic cross section = 6.85166E-18 cm**2 = 2.44677E-01 a0**2
 # 1st transport cross section = 2.10898E-20 cm**2 = 7.53129E-04 a0**2
 # 2nd transport cross section = 5.40037E-20 cm**2 = 1.92851E-03 a0**2
 #
 #
 # Differential cross section:                       MU=(1-COS(THETA))/2
 #
 #  THETA        MU          DCS          DCS        Sherman      error
 #  (deg)                 (cm**2/sr)   (a0**2/sr)    function
 #----------------------------------------------------------------------
  0.000E+00  0.00000E+00  6.87245E-15  2.45420E+02  0.00000E+00  1.0E-07
  1.000E-04  7.61557E-13  6.87245E-15  2.45420E+02  3.04499E-10  1.0E-07
  1.250E-04  1.18994E-12  6.87245E-15  2.45420E+02  3.80624E-10  1.0E-07
  1.500E-04  1.71346E-12  6.87245E-15  2.45420E+02  4.56749E-10  1.0E-07
  1.750E-04  2.33225E-12  6.87245E-15  2.45420E+02  5.32874E-10  1.0E-07
  2.000E-04  3.04617E-12  6.87245E-15  2.45420E+02  6.08998E-10  1.0E-07
  2.250E-04  3.85530E-12  6.87245E-15  2.45420E+02  6.85123E-10  1.0E-07
  2.500E-04  4.75964E-12  6.87245E-15  2.45420E+02  7.61248E-10  1.0E-07
  2.750E-04  5.75917E-12  6.87245E-15  2.45420E+02  8.37373E-10  1.0E-07
  3.000E-04  6.85391E-12  6.87245E-15  2.45420E+02  9.13498E-10  1.0E-07
  3.250E-04  8.04379E-12  6.87245E-15  2.45420E+02  9.89623E-10  1.0E-07
  3.500E-04  9.32893E-12  6.87245E-15  2.45420E+02  1.06575E-09  1.0E-07
  3.750E-04  1.07092E-11  6.87245E-15  2.45419E+02  1.14187E-09  1.0E-07
  4.000E-04  1.21847E-11  6.87245E-15  2.45419E+02  1.21800E-09  1.0E-07
  4.250E-04  1.37554E-11  6.87244E-15  2.45419E+02  1.29412E-09  1.0E-07
  4.500E-04  1.54213E-11  6.87244E-15  2.45419E+02  1.37025E-09  1.0E-07
  4.750E-04  1.71823E-11  6.87244E-15  2.45419E+02  1.44637E-09  1.0E-07
  5.000E-04  1.90386E-11  6.87244E-15  2.45419E+02  1.52250E-09  1.0E-07
  5.250E-04  2.09900E-11  6.87244E-15  2.45419E+02  1.59862E-09  1.0E-07
  5.500E-04  2.30367E-11  6.87244E-15  2.45419E+02  1.67475E-09  1.0E-07
  5.750E-04  2.51785E-11  6.87244E-15  2.45419E+02  1.75087E-09  1.0E-07
  6.000E-04  2.74156E-11  6.87244E-15  2.45419E+02  1.82700E-09  1.0E-07
  6.250E-04  2.97478E-11  6.87244E-15  2.45419E+02  1.90312E-09  1.0E-07
  6.500E-04  3.21752E-11  6.87244E-15  2.45419E+02  1.97925E-09  1.0E-07
  6.750E-04  3.46979E-11  6.87244E-15  2.45419E+02  2.05537E-09  1.0E-07
  7.000E-04  3.73157E-11  6.87244E-15  2.45419E+02  2.13150E-09  1.0E-07
  7.250E-04  4.00286E-11  6.87244E-15  2.45419E+02  2.20762E-09  1.0E-07
  7.500E-04  4.28368E-11  6.87244E-15  2.45419E+02  2.28375E-09  1.0E-07
  7.750E-04  4.57402E-11  6.87244E-15  2.45419E+02  2.35987E-09  1.0E-07
  8.000E-04  4.87388E-11  6.87244E-15  2.45419E+02  2.43600E-09  1.0E-07
  8.250E-04  5.18325E-11  6.87243E-15  2.45419E+02  2.51212E-09  1.0E-07
  8.500E-04  5.50215E-11  6.87243E-15  2.45419E+02  2.58825E-09  1.0E-07
  8.750E-04  5.83057E-11  6.87243E-15  2.45419E+02  2.66437E-09  1.0E-07
  9.000E-04  6.16850E-11  6.87243E-15  2.45419E+02  2.74050E-09  1.0E-07
  9.250E-04  6.51595E-11  6.87243E-15  2.45419E+02  2.81662E-09  1.0E-07
  9.500E-04  6.87293E-11  6.87243E-15  2.45419E+02  2.89275E-09  1.0E-07
  9.750E-04  7.23943E-11  6.87243E-15  2.45419E+02  2.96887E-09  1.0E-07
  1.000E-03  7.61544E-11  6.87243E-15  2.45419E+02  3.04500E-09  1.0E-07
  1.250E-03  1.18991E-10  6.87242E-15  2.45418E+02  3.80625E-09  1.0E-07
  1.500E-03  1.71347E-10  6.87240E-15  2.45418E+02  4.56750E-09  1.0E-07
  1.750E-03  2.33223E-10  6.87239E-15  2.45417E+02  5.32876E-09  1.0E-07
  2.000E-03  3.04617E-10  6.87237E-15  2.45417E+02  6.09002E-09  1.0E-07
  2.250E-03  3.85531E-10  6.87234E-15  2.45416E+02  6.85128E-09  1.0E-07
  2.500E-03  4.75965E-10  6.87232E-15  2.45415E+02  7.61254E-09  1.0E-07
  2.750E-03  5.75917E-10  6.87229E-15  2.45414E+02  8.37381E-09  1.0E-07
  3.000E-03  6.85389E-10  6.87226E-15  2.45413E+02  9.13508E-09  1.0E-07
  3.250E-03  8.04380E-10  6.87223E-15  2.45412E+02  9.89636E-09  1.0E-07
  3.500E-03  9.32891E-10  6.87220E-15  2.45411E+02  1.06576E-08  1.0E-07
  3.750E-03  1.07092E-09  6.87216E-15  2.45409E+02  1.14189E-08  1.0E-07
  4.000E-03  1.21847E-09  6.87212E-15  2.45408E+02  1.21802E-08  1.0E-07
  4.250E-03  1.37554E-09  6.87207E-15  2.45406E+02  1.29415E-08  1.0E-07
  4.500E-03  1.54213E-09  6.87203E-15  2.45405E+02  1.37028E-08  1.0E-07
  4.750E-03  1.71823E-09  6.87198E-15  2.45403E+02  1.44641E-08  1.0E-07
  5.000E-03  1.90386E-09  6.87193E-15  2.45401E+02  1.52255E-08  1.0E-07
  5.250E-03  2.09900E-09  6.87188E-15  2.45399E+02  1.59868E-08  1.0E-07
  5.500E-03  2.30367E-09  6.87182E-15  2.45397E+02  1.67481E-08  1.0E-07
  5.750E-03  2.51785E-09  6.87176E-15  2.45395E+02  1.75095E-08  1.0E-07
  6.000E-03  2.74156E-09  6.87170E-15  2.45393E+02  1.82708E-08  1.0E-07
  6.250E-03  2.97478E-09  6.87164E-15  2.45391E+02  1.90322E-08  1.0E-07
  6.500E-03  3.21752E-09  6.87157E-15  2.45388E+02  1.97935E-08  1.0E-07
  6.750E-03  3.46978E-09  6.87151E-15  2.45386E+02  2.05549E-08  1.0E-07
  7.000E-03  3.73156E-09  6.87143E-15  2.45383E+02  2.13163E-08  1.0E-07
  7.250E-03  4.00286E-09  6.87136E-15  2.45381E+02  2.20777E-08  1.0E-07
  7.500E-03  4.28368E-09  6.87128E-15  2.45378E+02  2.28391E-08  1.0E-07
  7.750E-03  4.57402E-09  6.87121E-15  2.45375E+02  2.36005E-08  1.0E-07
  8.000E-03  4.87388E-09  6.87112E-15  2.45372E+02  2.43620E-08  1.0E-07
  8.250E-03  5.18326E-09  6.87104E-15  2.45369E+02  2.51234E-08  1.0E-07
  8.500E-03  5.50215E-09  6.87095E-15  2.45366E+02  2.58849E-08  1.0E-07
  8.750E-03  5.83057E-09  6.87086E-15  2.45363E+02  2.66463E-08  1.0E-07
  9.000E-03  6.16850E-09  6.87077E-15  2.45360E+02  2.74078E-08  1.0E-07
  9.250E-03  6.51596E-09  6.87068E-15  2.45356E+02  2.81693E-08  1.0E-07
  9.500E-03  6.87293E-09  6.87058E-15  2.45353E+02  2.89308E-08  1.0E-07
  9.750E-03  7.23942E-09  6.87048E-15  2.45349E+02  2.96924E-08  1.0E-07
  1.000E-02  7.61544E-09  6.87038E-15  2.45346E+02  3.04539E-08  1.0E-07
  1.250E-02  1.18991E-08  6.86922E-15  2.45304E+02  3.80702E-08  1.0E-07
  1.500E-02  1.71347E-08  6.86780E-15  2.45253E+02  4.56883E-08  1.0E-07
  1.750E-02  2.33223E-08  6.86612E-15  2.45194E+02  5.33087E-08  1.0E-07
  2.000E-02  3.04617E-08  6.86418E-15  2.45124E+02  6.09316E-08  1.0E-07
  2.250E-02  3.85531E-08  6.86199E-15  2.45046E+02  6.85576E-08  1.0E-07
  2.500E-02  4.75965E-08  6.85954E-15  2.44959E+02  7.61869E-08  1.0E-07
  2.750E-02  5.75917E-08  6.85683E-15  2.44862E+02  8.38199E-08  1.0E-07
  3.000E-02  6.85389E-08  6.85387E-15  2.44756E+02  9.14570E-08  1.0E-07
  3.250E-02  8.04380E-08  6.85065E-15  2.44641E+02  9.90986E-08  1.0E-07
  3.500E-02  9.32891E-08  6.84718E-15  2.44517E+02  1.06745E-07  1.0E-07
  3.750E-02  1.07092E-07  6.84345E-15  2.44384E+02  1.14397E-07  1.0E-07
  4.000E-02  1.21847E-07  6.83948E-15  2.44242E+02  1.22054E-07  1.0E-07
  4.250E-02  1.37554E-07  6.83524E-15  2.44091E+02  1.29717E-07  1.0E-07
  4.500E-02  1.54213E-07  6.83076E-15  2.43931E+02  1.37387E-07  1.0E-07
  4.750E-02  1.71823E-07  6.82602E-15  2.43762E+02  1.45063E-07  1.0E-07
  5.000E-02  1.90386E-07  6.82104E-15  2.43584E+02  1.52746E-07  1.0E-07
  5.250E-02  2.09900E-07  6.81580E-15  2.43397E+02  1.60437E-07  1.0E-07
  5.500E-02  2.30367E-07  6.81032E-15  2.43201E+02  1.68135E-07  1.0E-07
  5.750E-02  2.51785E-07  6.80459E-15  2.42996E+02  1.75842E-07  1.0E-07
  6.000E-02  2.74156E-07  6.79861E-15  2.42783E+02  1.83557E-07  1.0E-07
  6.250E-02  2.97478E-07  6.79239E-15  2.42561E+02  1.91281E-07  1.0E-07
  6.500E-02  3.21752E-07  6.78593E-15  2.42330E+02  1.99015E-07  1.0E-07
  6.750E-02  3.46978E-07  6.77922E-15  2.42090E+02  2.06758E-07  1.0E-07
  7.000E-02  3.73156E-07  6.77226E-15  2.41842E+02  2.14511E-07  1.0E-07
  7.250E-02  4.00286E-07  6.76507E-15  2.41585E+02  2.22274E-07  1.0E-07
  7.500E-02  4.28368E-07  6.75764E-15  2.41320E+02  2.30048E-07  1.0E-07
  7.750E-02  4.57402E-07  6.74997E-15  2.41046E+02  2.37834E-07  1.0E-07
  8.000E-02  4.87388E-07  6.74206E-15  2.40763E+02  2.45630E-07  1.0E-07
  8.250E-02  5.18325E-07  6.73392E-15  2.40473E+02  2.53439E-07  1.0E-07
  8.500E-02  5.50215E-07  6.72555E-15  2.40174E+02  2.61260E-07  1.0E-07
  8.750E-02  5.83057E-07  6.71694E-15  2.39866E+02  2.69093E-07  1.0E-07
  9.000E-02  6.16850E-07  6.70810E-15  2.39550E+02  2.76940E-07  1.0E-07
  9.250E-02  6.51596E-07  6.69903E-15  2.39227E+02  2.84799E-07  1.0E-07
  9.500E-02  6.87293E-07  6.68973E-15  2.38895E+02  2.92672E-07  1.0E-07
  9.750E-02  7.23942E-07  6.68021E-15  2.38555E+02  3.00560E-07  1.0E-07
  1.000E-01  7.61543E-07  6.67046E-15  2.38206E+02  3.08462E-07  1.0E-07
  1.250E-01  1.18991E-06  6.56100E-15  2.34298E+02  3.88349E-07  1.0E-07
  1.500E-01  1.71347E-06  6.43110E-15  2.29659E+02  4.70068E-07  1.0E-07
  1.750E-01  2.33223E-06  6.28286E-15  2.24365E+02  5.53968E-07  1.0E-07
  2.000E-01  3.04617E-06  6.11858E-15  2.18498E+02  6.40388E-07  1.0E-07
  2.250E-01  3.85531E-06  5.94068E-15  2.12145E+02  7.29654E-07  1.0E-07
  2.500E-01  4.75964E-06  5.75163E-15  2.05394E+02  8.22079E-07  1.0E-07
  2.750E-01  5.75916E-06  5.55390E-15  1.98333E+02  9.17960E-07  1.0E-07
  3.000E-01  6.85388E-06  5.34986E-15  1.91047E+02  1.01758E-06  1.0E-07
  3.250E-01  8.04378E-06  5.14176E-15  1.83616E+02  1.12119E-06  1.0E-07
  3.500E-01  9.32888E-06  4.93172E-15  1.76115E+02  1.22903E-06  1.0E-07
  3.750E-01  1.07092E-05  4.72161E-15  1.68612E+02  1.34133E-06  1.0E-07
  4.000E-01  1.21846E-05  4.51314E-15  1.61167E+02  1.45827E-06  1.0E-07
  4.250E-01  1.37553E-05  4.30777E-15  1.53833E+02  1.58004E-06  1.0E-07
  4.500E-01  1.54212E-05  4.10673E-15  1.46654E+02  1.70677E-06  1.0E-07
  4.750E-01  1.71822E-05  3.91105E-15  1.39666E+02  1.83862E-06  1.0E-07
  5.000E-01  1.90385E-05  3.72154E-15  1.32899E+02  1.97567E-06  1.0E-07
  5.250E-01  2.09899E-05  3.53885E-15  1.26375E+02  2.11802E-06  1.0E-07
  5.500E-01  2.30365E-05  3.36341E-15  1.20109E+02  2.26573E-06  1.0E-07
  5.750E-01  2.51783E-05  3.19552E-15  1.14114E+02  2.41884E-06  1.0E-07
  6.000E-01  2.74153E-05  3.03535E-15  1.08394E+02  2.57737E-06  1.0E-07
  6.250E-01  2.97475E-05  2.88295E-15  1.02952E+02  2.74134E-06  1.0E-07
  6.500E-01  3.21749E-05  2.73827E-15  9.77855E+01  2.91074E-06  1.0E-07
  6.750E-01  3.46974E-05  2.60119E-15  9.28903E+01  3.08553E-06  1.0E-07
  7.000E-01  3.73152E-05  2.47152E-15  8.82597E+01  3.26568E-06  1.0E-07
  7.250E-01  4.00281E-05  2.34903E-15  8.38853E+01  3.45116E-06  1.0E-07
  7.500E-01  4.28362E-05  2.23344E-15  7.97576E+01  3.64189E-06  1.0E-07
  7.750E-01  4.57395E-05  2.12446E-15  7.58658E+01  3.83783E-06  1.0E-07
  8.000E-01  4.87380E-05  2.02177E-15  7.21989E+01  4.03892E-06  1.0E-07
  8.250E-01  5.18317E-05  1.92507E-15  6.87453E+01  4.24510E-06  1.0E-07
  8.500E-01  5.50205E-05  1.83401E-15  6.54937E+01  4.45631E-06  1.0E-07
  8.750E-01  5.83045E-05  1.74828E-15  6.24324E+01  4.67247E-06  1.0E-07
  9.000E-01  6.16838E-05  1.66758E-15  5.95503E+01  4.89352E-06  1.0E-07
  9.250E-01  6.51582E-05  1.59158E-15  5.68364E+01  5.11942E-06  1.0E-07
  9.500E-01  6.87277E-05  1.52000E-15  5.42802E+01  5.35007E-06  1.0E-07
  9.750E-01  7.23925E-05  1.45256E-15  5.18718E+01  5.58544E-06  1.0E-07
  1.000E+00  7.61524E-05  1.38898E-15  4.96015E+01  5.82549E-06  1.0E-07
  1.100E+00  9.21439E-05  1.16852E-15  4.17285E+01  6.83138E-06  1.0E-07
  1.200E+00  1.09658E-04  9.92248E-16  3.54338E+01  7.90910E-06  1.0E-07
  1.300E+00  1.28695E-04  8.49589E-16  3.03394E+01  9.05763E-06  1.0E-07
  1.400E+00  1.49255E-04  7.32674E-16  2.61643E+01  1.02769E-05  1.0E-07
  1.500E+00  1.71338E-04  6.35708E-16  2.27015E+01  1.15676E-05  1.0E-07
  1.600E+00  1.94942E-04  5.54414E-16  1.97985E+01  1.29306E-05  1.0E-07
  1.700E+00  2.20070E-04  4.85612E-16  1.73415E+01  1.43670E-05  1.0E-07
  1.800E+00  2.46720E-04  4.26911E-16  1.52453E+01  1.58778E-05  1.0E-07
  1.900E+00  2.74892E-04  3.76487E-16  1.34446E+01  1.74638E-05  1.0E-07
  2.000E+00  3.04586E-04  3.32927E-16  1.18890E+01  1.91253E-05  1.0E-07
  2.100E+00  3.35803E-04  2.95119E-16  1.05389E+01  2.08623E-05  1.0E-07
  2.200E+00  3.68542E-04  2.62177E-16  9.36251E+00  2.26741E-05  1.0E-07
  2.300E+00  4.02802E-04  2.33380E-16  8.33415E+00  2.45599E-05  1.0E-07
  2.400E+00  4.38585E-04  2.08138E-16  7.43273E+00  2.65178E-05  1.0E-07
  2.500E+00  4.75889E-04  1.85960E-16  6.64075E+00  2.85459E-05  1.0E-07
  2.600E+00  5.14715E-04  1.66435E-16  5.94350E+00  3.06414E-05  1.0E-07
  2.700E+00  5.55063E-04  1.49214E-16  5.32855E+00  3.28012E-05  1.0E-07
  2.800E+00  5.96931E-04  1.34002E-16  4.78530E+00  3.50216E-05  1.0E-07
  2.900E+00  6.40321E-04  1.20543E-16  4.30468E+00  3.72985E-05  1.0E-07
  3.000E+00  6.85233E-04  1.08619E-16  3.87885E+00  3.96276E-05  1.0E-07
  3.100E+00  7.31665E-04  9.80399E-17  3.50107E+00  4.20042E-05  1.0E-07
  3.200E+00  7.79618E-04  8.86418E-17  3.16546E+00  4.44233E-05  1.0E-07
  3.300E+00  8.29092E-04  8.02817E-17  2.86691E+00  4.68797E-05  1.0E-07
  3.400E+00  8.80086E-04  7.28351E-17  2.60099E+00  4.93684E-05  1.0E-07
  3.500E+00  9.32601E-04  6.61933E-17  2.36381E+00  5.18842E-05  1.0E-07
  3.600E+00  9.86636E-04  6.02614E-17  2.15197E+00  5.44218E-05  1.0E-07
  3.700E+00  1.04219E-03  5.49561E-17  1.96252E+00  5.69764E-05  1.0E-07
  3.800E+00  1.09927E-03  5.02047E-17  1.79284E+00  5.95432E-05  1.0E-07
  3.900E+00  1.15786E-03  4.59431E-17  1.64066E+00  6.21175E-05  1.0E-07
  4.000E+00  1.21797E-03  4.21154E-17  1.50397E+00  6.46952E-05  1.0E-07
  4.100E+00  1.27961E-03  3.86723E-17  1.38101E+00  6.72724E-05  1.0E-07
  4.200E+00  1.34276E-03  3.55705E-17  1.27025E+00  6.98454E-05  1.0E-07
  4.300E+00  1.40743E-03  3.27719E-17  1.17031E+00  7.24110E-05  1.0E-07
  4.400E+00  1.47362E-03  3.02431E-17  1.08000E+00  7.49664E-05  1.0E-07
  4.500E+00  1.54133E-03  2.79544E-17  9.98270E-01  7.75092E-05  1.0E-07
  4.600E+00  1.61056E-03  2.58799E-17  9.24187E-01  8.00372E-05  1.0E-07
  4.700E+00  1.68131E-03  2.39965E-17  8.56931E-01  8.25487E-05  1.0E-07
  4.800E+00  1.75357E-03  2.22840E-17  7.95777E-01  8.50422E-05  1.0E-07
  4.900E+00  1.82735E-03  2.07245E-17  7.40084E-01  8.75166E-05  1.0E-07
  5.000E+00  1.90265E-03  1.93020E-17  6.89286E-01  8.99709E-05  1.0E-07
  5.100E+00  1.97947E-03  1.80025E-17  6.42879E-01  9.24045E-05  1.0E-07
  5.200E+00  2.05780E-03  1.68135E-17  6.00420E-01  9.48167E-05  1.0E-07
  5.300E+00  2.13765E-03  1.57239E-17  5.61512E-01  9.72072E-05  1.0E-07
  5.400E+00  2.21902E-03  1.47241E-17  5.25806E-01  9.95758E-05  1.0E-07
  5.500E+00  2.30190E-03  1.38051E-17  4.92987E-01  1.01922E-04  1.0E-07
  5.600E+00  2.38630E-03  1.29591E-17  4.62780E-01  1.04246E-04  1.0E-07
  5.700E+00  2.47222E-03  1.21794E-17  4.34934E-01  1.06548E-04  1.0E-07
  5.800E+00  2.55965E-03  1.14596E-17  4.09229E-01  1.08827E-04  1.0E-07
  5.900E+00  2.64859E-03  1.07942E-17  3.85468E-01  1.11082E-04  1.0E-07
  6.000E+00  2.73905E-03  1.01783E-17  3.63473E-01  1.13315E-04  1.0E-07
  6.100E+00  2.83103E-03  9.60734E-18  3.43084E-01  1.15524E-04  1.0E-07
  6.200E+00  2.92452E-03  9.07745E-18  3.24161E-01  1.17709E-04  1.0E-07
  6.300E+00  3.01952E-03  8.58499E-18  3.06576E-01  1.19869E-04  1.0E-07
  6.400E+00  3.11604E-03  8.12676E-18  2.90212E-01  1.22003E-04  1.0E-07
  6.500E+00  3.21407E-03  7.69986E-18  2.74967E-01  1.24111E-04  1.0E-07
  6.600E+00  3.31362E-03  7.30167E-18  2.60747E-01  1.26191E-04  1.0E-07
  6.700E+00  3.41468E-03  6.92982E-18  2.47468E-01  1.28243E-04  1.0E-07
  6.800E+00  3.51725E-03  6.58218E-18  2.35054E-01  1.30265E-04  1.0E-07
  6.900E+00  3.62133E-03  6.25683E-18  2.23435E-01  1.32255E-04  1.0E-07
  7.000E+00  3.72692E-03  5.95199E-18  2.12550E-01  1.34213E-04  1.0E-07
  7.100E+00  3.83403E-03  5.66610E-18  2.02340E-01  1.36136E-04  1.0E-07
  7.200E+00  3.94265E-03  5.39769E-18  1.92755E-01  1.38022E-04  1.0E-07
  7.300E+00  4.05278E-03  5.14545E-18  1.83747E-01  1.39870E-04  1.0E-07
  7.400E+00  4.16442E-03  4.90819E-18  1.75275E-01  1.41677E-04  1.0E-07
  7.500E+00  4.27757E-03  4.68481E-18  1.67298E-01  1.43441E-04  1.0E-07
  7.600E+00  4.39223E-03  4.47431E-18  1.59781E-01  1.45160E-04  1.0E-07
  7.700E+00  4.50840E-03  4.27578E-18  1.52691E-01  1.46831E-04  1.0E-07
  7.800E+00  4.62608E-03  4.08838E-18  1.45999E-01  1.48453E-04  1.0E-07
  7.900E+00  4.74527E-03  3.91134E-18  1.39676E-01  1.50022E-04  1.0E-07
  8.000E+00  4.86597E-03  3.74396E-18  1.33699E-01  1.51536E-04  1.0E-07
  8.100E+00  4.98817E-03  3.58559E-18  1.28044E-01  1.52991E-04  1.0E-07
  8.200E+00  5.11188E-03  3.43564E-18  1.22689E-01  1.54387E-04  1.0E-07
  8.300E+00  5.23711E-03  3.29356E-18  1.17615E-01  1.55718E-04  1.0E-07
  8.400E+00  5.36383E-03  3.15884E-18  1.12804E-01  1.56984E-04  1.0E-07
  8.500E+00  5.49207E-03  3.03101E-18  1.08240E-01  1.58180E-04  1.0E-07
  8.600E+00  5.62181E-03  2.90965E-18  1.03906E-01  1.59304E-04  1.0E-07
  8.700E+00  5.75306E-03  2.79436E-18  9.97884E-02  1.60353E-04  1.0E-07
  8.800E+00  5.88581E-03  2.68476E-18  9.58745E-02  1.61325E-04  1.0E-07
  8.900E+00  6.02007E-03  2.58051E-18  9.21517E-02  1.62215E-04  1.0E-07
  9.000E+00  6.15583E-03  2.48130E-18  8.86087E-02  1.63022E-04  1.0E-07
  9.100E+00  6.29310E-03  2.38682E-18  8.52349E-02  1.63742E-04  1.0E-07
  9.200E+00  6.43187E-03  2.29681E-18  8.20205E-02  1.64373E-04  1.0E-07
  9.300E+00  6.57214E-03  2.21101E-18  7.89564E-02  1.64910E-04  1.0E-07
  9.400E+00  6.71392E-03  2.12917E-18  7.60341E-02  1.65353E-04  1.0E-07
  9.500E+00  6.85720E-03  2.05109E-18  7.32456E-02  1.65697E-04  1.0E-07
  9.600E+00  7.00198E-03  1.97654E-18  7.05836E-02  1.65940E-04  1.0E-07
  9.700E+00  7.14827E-03  1.90534E-18  6.80411E-02  1.66078E-04  1.0E-07
  9.800E+00  7.29605E-03  1.83731E-18  6.56116E-02  1.66110E-04  1.0E-07
  9.900E+00  7.44534E-03  1.77228E-18  6.32891E-02  1.66032E-04  1.0E-07
  1.000E+01  7.59612E-03  1.71008E-18  6.10680E-02  1.65842E-04  1.0E-07
  1.025E+01  7.97965E-03  1.56605E-18  5.59245E-02  1.64857E-04  1.0E-07
  1.050E+01  8.37255E-03  1.43676E-18  5.13077E-02  1.63112E-04  1.0E-07
  1.075E+01  8.77480E-03  1.32045E-18  4.71540E-02  1.60566E-04  1.0E-07
  1.100E+01  9.18641E-03  1.21557E-18  4.34087E-02  1.57182E-04  1.0E-07
  1.125E+01  9.60736E-03  1.12080E-18  4.00245E-02  1.52923E-04  1.0E-07
  1.150E+01  1.00376E-02  1.03500E-18  3.69606E-02  1.47755E-04  1.0E-07
  1.175E+01  1.04773E-02  9.57178E-19  3.41815E-02  1.41645E-04  1.0E-07
  1.200E+01  1.09262E-02  8.86462E-19  3.16561E-02  1.34562E-04  1.0E-07
  1.225E+01  1.13844E-02  8.22093E-19  2.93575E-02  1.26477E-04  1.0E-07
  1.250E+01  1.18520E-02  7.63406E-19  2.72617E-02  1.17364E-04  1.0E-07
  1.275E+01  1.23288E-02  7.09815E-19  2.53480E-02  1.07196E-04  1.0E-07
  1.300E+01  1.28150E-02  6.60804E-19  2.35978E-02  9.59494E-05  1.0E-07
  1.325E+01  1.33104E-02  6.15916E-19  2.19948E-02  8.36025E-05  1.0E-07
  1.350E+01  1.38150E-02  5.74747E-19  2.05246E-02  7.01345E-05  1.0E-07
  1.375E+01  1.43290E-02  5.36936E-19  1.91743E-02  5.55261E-05  1.0E-07
  1.400E+01  1.48521E-02  5.02163E-19  1.79326E-02  3.97594E-05  1.0E-07
  1.425E+01  1.53845E-02  4.70145E-19  1.67892E-02  2.28180E-05  1.0E-07
  1.450E+01  1.59262E-02  4.40625E-19  1.57350E-02  0.00000E+00  1.0E-07
  1.475E+01  1.64770E-02  4.13377E-19  1.47620E-02  0.00000E+00  1.0E-07
