 #
 # Subroutine ELSEPA. Elastic scattering of electrons and positrons
 #                    by neutral atoms and positive ions
 #
 # Projectile: electron
 # Kinetic energy = 4.00000E+02 eV = 1.46997E+01 a.u.
 #
 # Element: Au,  Z =  79,  atomic weight = 1.96967E+02 g/mol
 #
 # Nuclear model: Fermi distribution
 #                Average radius = 6.22560E-13 cm
 #                Skin thickness = 5.46000E-14 cm
 #
 # Number of electrons = 79
 #
 # Electron density: Read from file ./database/z_079.den                                                                                                    
 #                   Number of data points =  777
 #                   Volume integral = 7.90000E+01
 #
 # Furness-McCarthy exchange potential
 #
 # No absorption potential
 #
 # No correlation-polarization potential
 #
 # Integrated cross sections:
 # Total elastic cross section = 4.09494E-16 cm**2 = 1.46233E+01 a0**2
 # 1st transport cross section = 1.01071E-16 cm**2 = 3.60930E+00 a0**2
 # 2nd transport cross section = 1.40112E-16 cm**2 = 5.00350E+00 a0**2
 #
 #
 # Differential cross section:                       MU=(1-COS(THETA))/2
 #
 #  THETA        MU          DCS          DCS        Sherman      error
 #  (deg)                 (cm**2/sr)   (a0**2/sr)    function
 #----------------------------------------------------------------------
  0.000E+00  0.00000E+00  2.35511E-15  8.41026E+01  0.00000E+00  1.0E-07
  1.000E-04  7.61557E-13  2.35511E-15  8.41026E+01  1.69627E-08  1.0E-07
  1.250E-04  1.18994E-12  2.35511E-15  8.41026E+01  2.12033E-08  1.0E-07
  1.500E-04  1.71346E-12  2.35511E-15  8.41026E+01  2.54440E-08  1.0E-07
  1.750E-04  2.33225E-12  2.35511E-15  8.41026E+01  2.96847E-08  1.0E-07
  2.000E-04  3.04617E-12  2.35511E-15  8.41026E+01  3.39253E-08  1.0E-07
  2.250E-04  3.85530E-12  2.35511E-15  8.41026E+01  3.81660E-08  1.0E-07
  2.500E-04  4.75964E-12  2.35511E-15  8.41026E+01  4.24067E-08  1.0E-07
  2.750E-04  5.75917E-12  2.35511E-15  8.41026E+01  4.66473E-08  1.0E-07
  3.000E-04  6.85391E-12  2.35511E-15  8.41026E+01  5.08880E-08  1.0E-07
  3.250E-04  8.04379E-12  2.35511E-15  8.41026E+01  5.51287E-08  1.0E-07
  3.500E-04  9.32893E-12  2.35511E-15  8.41026E+01  5.93693E-08  1.0E-07
  3.750E-04  1.07092E-11  2.35511E-15  8.41026E+01  6.36100E-08  1.0E-07
  4.000E-04  1.21847E-11  2.35511E-15  8.41026E+01  6.78507E-08  1.0E-07
  4.250E-04  1.37554E-11  2.35511E-15  8.41026E+01  7.20913E-08  1.0E-07
  4.500E-04  1.54213E-11  2.35511E-15  8.41026E+01  7.63320E-08  1.0E-07
  4.750E-04  1.71823E-11  2.35511E-15  8.41026E+01  8.05727E-08  1.0E-07
  5.000E-04  1.90386E-11  2.35511E-15  8.41026E+01  8.48133E-08  1.0E-07
  5.250E-04  2.09900E-11  2.35511E-15  8.41026E+01  8.90540E-08  1.0E-07
  5.500E-04  2.30367E-11  2.35511E-15  8.41026E+01  9.32947E-08  1.0E-07
  5.750E-04  2.51785E-11  2.35511E-15  8.41026E+01  9.75353E-08  1.0E-07
  6.000E-04  2.74156E-11  2.35511E-15  8.41026E+01  1.01776E-07  1.0E-07
  6.250E-04  2.97478E-11  2.35511E-15  8.41026E+01  1.06017E-07  1.0E-07
  6.500E-04  3.21752E-11  2.35511E-15  8.41026E+01  1.10257E-07  1.0E-07
  6.750E-04  3.46979E-11  2.35511E-15  8.41026E+01  1.14498E-07  1.0E-07
  7.000E-04  3.73157E-11  2.35511E-15  8.41026E+01  1.18739E-07  1.0E-07
  7.250E-04  4.00286E-11  2.35511E-15  8.41026E+01  1.22979E-07  1.0E-07
  7.500E-04  4.28368E-11  2.35511E-15  8.41026E+01  1.27220E-07  1.0E-07
  7.750E-04  4.57402E-11  2.35511E-15  8.41026E+01  1.31461E-07  1.0E-07
  8.000E-04  4.87388E-11  2.35511E-15  8.41026E+01  1.35701E-07  1.0E-07
  8.250E-04  5.18325E-11  2.35511E-15  8.41026E+01  1.39942E-07  1.0E-07
  8.500E-04  5.50215E-11  2.35511E-15  8.41026E+01  1.44183E-07  1.0E-07
  8.750E-04  5.83057E-11  2.35511E-15  8.41026E+01  1.48423E-07  1.0E-07
  9.000E-04  6.16850E-11  2.35511E-15  8.41026E+01  1.52664E-07  1.0E-07
  9.250E-04  6.51595E-11  2.35511E-15  8.41026E+01  1.56905E-07  1.0E-07
  9.500E-04  6.87293E-11  2.35511E-15  8.41026E+01  1.61145E-07  1.0E-07
  9.750E-04  7.23943E-11  2.35511E-15  8.41026E+01  1.65386E-07  1.0E-07
  1.000E-03  7.61544E-11  2.35511E-15  8.41026E+01  1.69627E-07  1.0E-07
  1.250E-03  1.18991E-10  2.35511E-15  8.41026E+01  2.12033E-07  1.0E-07
  1.500E-03  1.71347E-10  2.35511E-15  8.41026E+01  2.54440E-07  1.0E-07
  1.750E-03  2.33223E-10  2.35511E-15  8.41026E+01  2.96847E-07  1.0E-07
  2.000E-03  3.04617E-10  2.35511E-15  8.41026E+01  3.39253E-07  1.0E-07
  2.250E-03  3.85531E-10  2.35511E-15  8.41026E+01  3.81660E-07  1.0E-07
  2.500E-03  4.75965E-10  2.35511E-15  8.41026E+01  4.24067E-07  1.0E-07
  2.750E-03  5.75917E-10  2.35511E-15  8.41026E+01  4.66473E-07  1.0E-07
  3.000E-03  6.85389E-10  2.35511E-15  8.41026E+01  5.08880E-07  1.0E-07
  3.250E-03  8.04380E-10  2.35511E-15  8.41026E+01  5.51287E-07  1.0E-07
  3.500E-03  9.32891E-10  2.35511E-15  8.41026E+01  5.93693E-07  1.0E-07
  3.750E-03  1.07092E-09  2.35511E-15  8.41026E+01  6.36100E-07  1.0E-07
  4.000E-03  1.21847E-09  2.35511E-15  8.41026E+01  6.78507E-07  1.0E-07
  4.250E-03  1.37554E-09  2.35511E-15  8.41026E+01  7.20913E-07  1.0E-07
  4.500E-03  1.54213E-09  2.35511E-15  8.41026E+01  7.63320E-07  1.0E-07
  4.750E-03  1.71823E-09  2.35511E-15  8.41026E+01  8.05727E-07  1.0E-07
  5.000E-03  1.90386E-09  2.35511E-15  8.41026E+01  8.48133E-07  1.0E-07
  5.250E-03  2.09900E-09  2.35511E-15  8.41026E+01  8.90540E-07  1.0E-07
  5.500E-03  2.30367E-09  2.35511E-15  8.41026E+01  9.32947E-07  1.0E-07
  5.750E-03  2.51785E-09  2.35511E-15  8.41026E+01  9.75353E-07  1.0E-07
  6.000E-03  2.74156E-09  2.35511E-15  8.41026E+01  1.01776E-06  1.0E-07
  6.250E-03  2.97478E-09  2.35511E-15  8.41026E+01  1.06017E-06  1.0E-07
  6.500E-03  3.21752E-09  2.35511E-15  8.41026E+01  1.10257E-06  1.0E-07
  6.750E-03  3.46978E-09  2.35511E-15  8.41026E+01  1.14498E-06  1.0E-07
  7.000E-03  3.73156E-09  2.35511E-15  8.41026E+01  1.18739E-06  1.0E-07
  7.250E-03  4.00286E-09  2.35511E-15  8.41026E+01  1.22979E-06  1.0E-07
  7.500E-03  4.28368E-09  2.35511E-15  8.41026E+01  1.27220E-06  1.0E-07
  7.750E-03  4.57402E-09  2.35511E-15  8.41026E+01  1.31461E-06  1.0E-07
  8.000E-03  4.87388E-09  2.35511E-15  8.41026E+01  1.35701E-06  1.0E-07
  8.250E-03  5.18326E-09  2.35511E-15  8.41026E+01  1.39942E-06  1.0E-07
  8.500E-03  5.50215E-09  2.35511E-15  8.41026E+01  1.44183E-06  1.0E-07
  8.750E-03  5.83057E-09  2.35511E-15  8.41026E+01  1.48423E-06  1.0E-07
  9.000E-03  6.16850E-09  2.35511E-15  8.41026E+01  1.52664E-06  1.0E-07
  9.250E-03  6.51596E-09  2.35511E-15  8.41026E+01  1.56905E-06  1.0E-07
  9.500E-03  6.87293E-09  2.35511E-15  8.41026E+01  1.61145E-06  1.0E-07
  9.750E-03  7.23942E-09  2.35511E-15  8.41026E+01  1.65386E-06  1.0E-07
  1.000E-02  7.61544E-09  2.35511E-15  8.41025E+01  1.69627E-06  1.0E-07
  1.250E-02  1.18991E-08  2.35511E-15  8.41025E+01  2.12033E-06  1.0E-07
  1.500E-02  1.71347E-08  2.35511E-15  8.41024E+01  2.54440E-06  1.0E-07
  1.750E-02  2.33223E-08  2.35511E-15  8.41024E+01  2.96847E-06  1.0E-07
  2.000E-02  3.04617E-08  2.35510E-15  8.41023E+01  3.39254E-06  1.0E-07
  2.250E-02  3.85531E-08  2.35510E-15  8.41022E+01  3.81660E-06  1.0E-07
  2.500E-02  4.75965E-08  2.35510E-15  8.41021E+01  4.24067E-06  1.0E-07
  2.750E-02  5.75917E-08  2.35509E-15  8.41019E+01  4.66474E-06  1.0E-07
  3.000E-02  6.85389E-08  2.35509E-15  8.41018E+01  5.08881E-06  1.0E-07
  3.250E-02  8.04380E-08  2.35509E-15  8.41017E+01  5.51287E-06  1.0E-07
  3.500E-02  9.32891E-08  2.35508E-15  8.41015E+01  5.93694E-06  1.0E-07
  3.750E-02  1.07092E-07  2.35508E-15  8.41014E+01  6.36101E-06  1.0E-07
  4.000E-02  1.21847E-07  2.35507E-15  8.41012E+01  6.78508E-06  1.0E-07
  4.250E-02  1.37554E-07  2.35507E-15  8.41010E+01  7.20915E-06  1.0E-07
  4.500E-02  1.54213E-07  2.35506E-15  8.41008E+01  7.63322E-06  1.0E-07
  4.750E-02  1.71823E-07  2.35506E-15  8.41006E+01  8.05729E-06  1.0E-07
  5.000E-02  1.90386E-07  2.35505E-15  8.41004E+01  8.48136E-06  1.0E-07
  5.250E-02  2.09900E-07  2.35504E-15  8.41001E+01  8.90543E-06  1.0E-07
  5.500E-02  2.30367E-07  2.35504E-15  8.40999E+01  9.32950E-06  1.0E-07
  5.750E-02  2.51785E-07  2.35503E-15  8.40996E+01  9.75357E-06  1.0E-07
  6.000E-02  2.74156E-07  2.35502E-15  8.40993E+01  1.01776E-05  1.0E-07
  6.250E-02  2.97478E-07  2.35501E-15  8.40991E+01  1.06017E-05  1.0E-07
  6.500E-02  3.21752E-07  2.35501E-15  8.40988E+01  1.10258E-05  1.0E-07
  6.750E-02  3.46978E-07  2.35500E-15  8.40985E+01  1.14499E-05  1.0E-07
  7.000E-02  3.73156E-07  2.35499E-15  8.40982E+01  1.18739E-05  1.0E-07
  7.250E-02  4.00286E-07  2.35498E-15  8.40978E+01  1.22980E-05  1.0E-07
  7.500E-02  4.28368E-07  2.35497E-15  8.40975E+01  1.27221E-05  1.0E-07
  7.750E-02  4.57402E-07  2.35496E-15  8.40971E+01  1.31462E-05  1.0E-07
  8.000E-02  4.87388E-07  2.35495E-15  8.40968E+01  1.35702E-05  1.0E-07
  8.250E-02  5.18325E-07  2.35494E-15  8.40964E+01  1.39943E-05  1.0E-07
  8.500E-02  5.50215E-07  2.35493E-15  8.40960E+01  1.44184E-05  1.0E-07
  8.750E-02  5.83057E-07  2.35492E-15  8.40956E+01  1.48425E-05  1.0E-07
  9.000E-02  6.16850E-07  2.35491E-15  8.40952E+01  1.52665E-05  1.0E-07
  9.250E-02  6.51596E-07  2.35489E-15  8.40948E+01  1.56906E-05  1.0E-07
  9.500E-02  6.87293E-07  2.35488E-15  8.40944E+01  1.61147E-05  1.0E-07
  9.750E-02  7.23942E-07  2.35487E-15  8.40940E+01  1.65388E-05  1.0E-07
  1.000E-01  7.61543E-07  2.35486E-15  8.40935E+01  1.69629E-05  1.0E-07
  1.250E-01  1.18991E-06  2.35471E-15  8.40884E+01  2.12037E-05  1.0E-07
  1.500E-01  1.71347E-06  2.35454E-15  8.40821E+01  2.54446E-05  1.0E-07
  1.750E-01  2.33223E-06  2.35433E-15  8.40747E+01  2.96857E-05  1.0E-07
  2.000E-01  3.04617E-06  2.35409E-15  8.40661E+01  3.39268E-05  1.0E-07
  2.250E-01  3.85531E-06  2.35382E-15  8.40564E+01  3.81681E-05  1.0E-07
  2.500E-01  4.75964E-06  2.35351E-15  8.40455E+01  4.24096E-05  1.0E-07
  2.750E-01  5.75916E-06  2.35318E-15  8.40336E+01  4.66512E-05  1.0E-07
  3.000E-01  6.85388E-06  2.35281E-15  8.40204E+01  5.08930E-05  1.0E-07
  3.250E-01  8.04378E-06  2.35241E-15  8.40062E+01  5.51351E-05  1.0E-07
  3.500E-01  9.32888E-06  2.35198E-15  8.39908E+01  5.93773E-05  1.0E-07
  3.750E-01  1.07092E-05  2.35152E-15  8.39743E+01  6.36198E-05  1.0E-07
  4.000E-01  1.21846E-05  2.35102E-15  8.39566E+01  6.78626E-05  1.0E-07
  4.250E-01  1.37553E-05  2.35050E-15  8.39378E+01  7.21056E-05  1.0E-07
  4.500E-01  1.54212E-05  2.34994E-15  8.39179E+01  7.63490E-05  1.0E-07
  4.750E-01  1.71822E-05  2.34935E-15  8.38968E+01  8.05926E-05  1.0E-07
  5.000E-01  1.90385E-05  2.34873E-15  8.38746E+01  8.48366E-05  1.0E-07
  5.250E-01  2.09899E-05  2.34807E-15  8.38513E+01  8.90809E-05  1.0E-07
  5.500E-01  2.30365E-05  2.34739E-15  8.38268E+01  9.33256E-05  1.0E-07
  5.750E-01  2.51783E-05  2.34667E-15  8.38012E+01  9.75706E-05  1.0E-07
  6.000E-01  2.74153E-05  2.34593E-15  8.37745E+01  1.01816E-04  1.0E-07
  6.250E-01  2.97475E-05  2.34515E-15  8.37467E+01  1.06062E-04  1.0E-07
  6.500E-01  3.21749E-05  2.34434E-15  8.37178E+01  1.10308E-04  1.0E-07
  6.750E-01  3.46974E-05  2.34349E-15  8.36877E+01  1.14555E-04  1.0E-07
  7.000E-01  3.73152E-05  2.34262E-15  8.36565E+01  1.18802E-04  1.0E-07
  7.250E-01  4.00281E-05  2.34172E-15  8.36242E+01  1.23050E-04  1.0E-07
  7.500E-01  4.28362E-05  2.34078E-15  8.35908E+01  1.27298E-04  1.0E-07
  7.750E-01  4.57395E-05  2.33981E-15  8.35563E+01  1.31547E-04  1.0E-07
  8.000E-01  4.87380E-05  2.33882E-15  8.35206E+01  1.35796E-04  1.0E-07
  8.250E-01  5.18317E-05  2.33779E-15  8.34839E+01  1.40045E-04  1.0E-07
  8.500E-01  5.50205E-05  2.33673E-15  8.34460E+01  1.44296E-04  1.0E-07
  8.750E-01  5.83045E-05  2.33564E-15  8.34071E+01  1.48547E-04  1.0E-07
  9.000E-01  6.16838E-05  2.33451E-15  8.33670E+01  1.52798E-04  1.0E-07
  9.250E-01  6.51582E-05  2.33336E-15  8.33258E+01  1.57050E-04  1.0E-07
  9.500E-01  6.87277E-05  2.33218E-15  8.32836E+01  1.61303E-04  1.0E-07
  9.750E-01  7.23925E-05  2.33096E-15  8.32402E+01  1.65556E-04  1.0E-07
  1.000E+00  7.61524E-05  2.32972E-15  8.31958E+01  1.69810E-04  1.0E-07
  1.100E+00  9.21439E-05  2.32444E-15  8.30071E+01  1.86832E-04  1.0E-07
  1.200E+00  1.09658E-04  2.31867E-15  8.28011E+01  2.03865E-04  1.0E-07
  1.300E+00  1.28695E-04  2.31242E-15  8.25781E+01  2.20911E-04  1.0E-07
  1.400E+00  1.49255E-04  2.30570E-15  8.23382E+01  2.37970E-04  1.0E-07
  1.500E+00  1.71338E-04  2.29852E-15  8.20816E+01  2.55042E-04  1.0E-07
  1.600E+00  1.94942E-04  2.29087E-15  8.18086E+01  2.72128E-04  1.0E-07
  1.700E+00  2.20070E-04  2.28278E-15  8.15194E+01  2.89230E-04  1.0E-07
  1.800E+00  2.46720E-04  2.27423E-15  8.12143E+01  3.06346E-04  1.0E-07
  1.900E+00  2.74892E-04  2.26525E-15  8.08935E+01  3.23479E-04  1.0E-07
  2.000E+00  3.04586E-04  2.25583E-15  8.05573E+01  3.40628E-04  1.0E-07
  2.100E+00  3.35803E-04  2.24600E-15  8.02060E+01  3.57793E-04  1.0E-07
  2.200E+00  3.68542E-04  2.23574E-15  7.98399E+01  3.74974E-04  1.0E-07
  2.300E+00  4.02802E-04  2.22509E-15  7.94593E+01  3.92172E-04  1.0E-07
  2.400E+00  4.38585E-04  2.21403E-15  7.90645E+01  4.09387E-04  1.0E-07
  2.500E+00  4.75889E-04  2.20259E-15  7.86559E+01  4.26619E-04  1.0E-07
  2.600E+00  5.14715E-04  2.19077E-15  7.82338E+01  4.43866E-04  1.0E-07
  2.700E+00  5.55063E-04  2.17858E-15  7.77986E+01  4.61130E-04  1.0E-07
  2.800E+00  5.96931E-04  2.16604E-15  7.73506E+01  4.78409E-04  1.0E-07
  2.900E+00  6.40321E-04  2.15314E-15  7.68901E+01  4.95703E-04  1.0E-07
  3.000E+00  6.85233E-04  2.13991E-15  7.64176E+01  5.13011E-04  1.0E-07
  3.100E+00  7.31665E-04  2.12635E-15  7.59334E+01  5.30333E-04  1.0E-07
  3.200E+00  7.79618E-04  2.11248E-15  7.54379E+01  5.47667E-04  1.0E-07
  3.300E+00  8.29092E-04  2.09829E-15  7.49314E+01  5.65012E-04  1.0E-07
  3.400E+00  8.80086E-04  2.08382E-15  7.44144E+01  5.82367E-04  1.0E-07
  3.500E+00  9.32601E-04  2.06905E-15  7.38873E+01  5.99731E-04  1.0E-07
  3.600E+00  9.86636E-04  2.05402E-15  7.33503E+01  6.17102E-04  1.0E-07
  3.700E+00  1.04219E-03  2.03872E-15  7.28040E+01  6.34478E-04  1.0E-07
  3.800E+00  1.09927E-03  2.02317E-15  7.22487E+01  6.51858E-04  1.0E-07
  3.900E+00  1.15786E-03  2.00738E-15  7.16849E+01  6.69239E-04  1.0E-07
  4.000E+00  1.21797E-03  1.99136E-15  7.11128E+01  6.86620E-04  1.0E-07
  4.100E+00  1.27961E-03  1.97512E-15  7.05330E+01  7.03997E-04  1.0E-07
  4.200E+00  1.34276E-03  1.95868E-15  6.99457E+01  7.21369E-04  1.0E-07
  4.300E+00  1.40743E-03  1.94204E-15  6.93515E+01  7.38732E-04  1.0E-07
  4.400E+00  1.47362E-03  1.92521E-15  6.87506E+01  7.56084E-04  1.0E-07
  4.500E+00  1.54133E-03  1.90821E-15  6.81435E+01  7.73422E-04  1.0E-07
  4.600E+00  1.61056E-03  1.89105E-15  6.75306E+01  7.90742E-04  1.0E-07
  4.700E+00  1.68131E-03  1.87373E-15  6.69122E+01  8.08040E-04  1.0E-07
  4.800E+00  1.75357E-03  1.85627E-15  6.62887E+01  8.25314E-04  1.0E-07
  4.900E+00  1.82735E-03  1.83868E-15  6.56605E+01  8.42559E-04  1.0E-07
  5.000E+00  1.90265E-03  1.82097E-15  6.50280E+01  8.59770E-04  1.0E-07
  5.100E+00  1.97947E-03  1.80315E-15  6.43916E+01  8.76945E-04  1.0E-07
  5.200E+00  2.05780E-03  1.78522E-15  6.37515E+01  8.94077E-04  1.0E-07
  5.300E+00  2.13765E-03  1.76721E-15  6.31082E+01  9.11163E-04  1.0E-07
  5.400E+00  2.21902E-03  1.74911E-15  6.24620E+01  9.28197E-04  1.0E-07
  5.500E+00  2.30190E-03  1.73095E-15  6.18132E+01  9.45174E-04  1.0E-07
  5.600E+00  2.38630E-03  1.71272E-15  6.11623E+01  9.62088E-04  1.0E-07
  5.700E+00  2.47222E-03  1.69444E-15  6.05094E+01  9.78934E-04  1.0E-07
  5.800E+00  2.55965E-03  1.67611E-15  5.98550E+01  9.95706E-04  1.0E-07
  5.900E+00  2.64859E-03  1.65775E-15  5.91994E+01  1.01240E-03  1.0E-07
  6.000E+00  2.73905E-03  1.63937E-15  5.85428E+01  1.02900E-03  1.0E-07
  6.100E+00  2.83103E-03  1.62096E-15  5.78856E+01  1.04551E-03  1.0E-07
  6.200E+00  2.92452E-03  1.60255E-15  5.72281E+01  1.06192E-03  1.0E-07
  6.300E+00  3.01952E-03  1.58414E-15  5.65706E+01  1.07823E-03  1.0E-07
  6.400E+00  3.11604E-03  1.56573E-15  5.59133E+01  1.09441E-03  1.0E-07
  6.500E+00  3.21407E-03  1.54734E-15  5.52565E+01  1.11048E-03  1.0E-07
  6.600E+00  3.31362E-03  1.52897E-15  5.46005E+01  1.12641E-03  1.0E-07
  6.700E+00  3.41468E-03  1.51063E-15  5.39455E+01  1.14220E-03  1.0E-07
  6.800E+00  3.51725E-03  1.49232E-15  5.32919E+01  1.15785E-03  1.0E-07
  6.900E+00  3.62133E-03  1.47406E-15  5.26397E+01  1.17333E-03  1.0E-07
  7.000E+00  3.72692E-03  1.45585E-15  5.19894E+01  1.18866E-03  1.0E-07
  7.100E+00  3.83403E-03  1.43770E-15  5.13410E+01  1.20380E-03  1.0E-07
  7.200E+00  3.94265E-03  1.41960E-15  5.06949E+01  1.21876E-03  1.0E-07
  7.300E+00  4.05278E-03  1.40158E-15  5.00512E+01  1.23352E-03  1.0E-07
  7.400E+00  4.16442E-03  1.38362E-15  4.94101E+01  1.24808E-03  1.0E-07
  7.500E+00  4.27757E-03  1.36575E-15  4.87718E+01  1.26242E-03  1.0E-07
  7.600E+00  4.39223E-03  1.34796E-15  4.81366E+01  1.27653E-03  1.0E-07
  7.700E+00  4.50840E-03  1.33026E-15  4.75046E+01  1.29040E-03  1.0E-07
  7.800E+00  4.62608E-03  1.31266E-15  4.68759E+01  1.30402E-03  1.0E-07
  7.900E+00  4.74527E-03  1.29515E-15  4.62507E+01  1.31738E-03  1.0E-07
  8.000E+00  4.86597E-03  1.27775E-15  4.56292E+01  1.33046E-03  1.0E-07
  8.100E+00  4.98817E-03  1.26045E-15  4.50116E+01  1.34325E-03  1.0E-07
  8.200E+00  5.11188E-03  1.24327E-15  4.43980E+01  1.35574E-03  1.0E-07
  8.300E+00  5.23711E-03  1.22620E-15  4.37884E+01  1.36792E-03  1.0E-07
  8.400E+00  5.36383E-03  1.20925E-15  4.31831E+01  1.37976E-03  1.0E-07
  8.500E+00  5.49207E-03  1.19242E-15  4.25822E+01  1.39127E-03  1.0E-07
  8.600E+00  5.62181E-03  1.17572E-15  4.19857E+01  1.40241E-03  1.0E-07
  8.700E+00  5.75306E-03  1.15915E-15  4.13939E+01  1.41319E-03  1.0E-07
  8.800E+00  5.88581E-03  1.14270E-15  4.08067E+01  1.42357E-03  1.0E-07
  8.900E+00  6.02007E-03  1.12639E-15  4.02243E+01  1.43356E-03  1.0E-07
  9.000E+00  6.15583E-03  1.11022E-15  3.96468E+01  1.44312E-03  1.0E-07
  9.100E+00  6.29310E-03  1.09419E-15  3.90742E+01  1.45225E-03  1.0E-07
  9.200E+00  6.43187E-03  1.07830E-15  3.85067E+01  1.46093E-03  1.0E-07
  9.300E+00  6.57214E-03  1.06255E-15  3.79443E+01  1.46913E-03  1.0E-07
  9.400E+00  6.71392E-03  1.04694E-15  3.73870E+01  1.47685E-03  1.0E-07
  9.500E+00  6.85720E-03  1.03149E-15  3.68350E+01  1.48407E-03  1.0E-07
  9.600E+00  7.00198E-03  1.01618E-15  3.62883E+01  1.49076E-03  1.0E-07
  9.700E+00  7.14827E-03  1.00101E-15  3.57469E+01  1.49691E-03  1.0E-07
  9.800E+00  7.29605E-03  9.86005E-16  3.52109E+01  1.50249E-03  1.0E-07
  9.900E+00  7.44534E-03  9.71148E-16  3.46803E+01  1.50750E-03  1.0E-07
  1.000E+01  7.59612E-03  9.56443E-16  3.41552E+01  1.51191E-03  1.0E-07
  1.025E+01  7.97965E-03  9.20357E-16  3.28665E+01  1.52015E-03  1.0E-07
  1.050E+01  8.37255E-03  8.85242E-16  3.16126E+01  1.52418E-03  1.0E-07
  1.075E+01  8.77480E-03  8.51105E-16  3.03935E+01  1.52364E-03  1.0E-07
  1.100E+01  9.18641E-03  8.17950E-16  2.92095E+01  1.51815E-03  1.0E-07
  1.125E+01  9.60736E-03  7.85773E-16  2.80605E+01  1.50734E-03  1.0E-07
  1.150E+01  1.00376E-02  7.54572E-16  2.69463E+01  1.49079E-03  1.0E-07
  1.175E+01  1.04773E-02  7.24340E-16  2.58666E+01  1.46806E-03  1.0E-07
  1.200E+01  1.09262E-02  6.95065E-16  2.48212E+01  1.43871E-03  1.0E-07
  1.225E+01  1.13844E-02  6.66738E-16  2.38096E+01  1.40226E-03  1.0E-07
  1.250E+01  1.18520E-02  6.39343E-16  2.28314E+01  1.35822E-03  1.0E-07
  1.275E+01  1.23288E-02  6.12867E-16  2.18859E+01  1.30605E-03  1.0E-07
  1.300E+01  1.28150E-02  5.87291E-16  2.09725E+01  1.24520E-03  1.0E-07
  1.325E+01  1.33104E-02  5.62598E-16  2.00907E+01  1.17510E-03  1.0E-07
  1.350E+01  1.38150E-02  5.38769E-16  1.92398E+01  1.09514E-03  1.0E-07
  1.375E+01  1.43290E-02  5.15785E-16  1.84190E+01  1.00468E-03  1.0E-07
  1.400E+01  1.48521E-02  4.93625E-16  1.76277E+01  9.03044E-04  1.0E-07
  1.425E+01  1.53845E-02  4.72268E-16  1.68650E+01  7.89537E-04  1.0E-07
  1.450E+01  1.59262E-02  4.51693E-16  1.61303E+01  6.63416E-04  1.0E-07
  1.475E+01  1.64770E-02  4.31880E-16  1.54227E+01  5.23902E-04  1.0E-07
