  0.297057986      0.115888000    
  0.454156995      0.121785998    
   5.33826984E-02  0.135895997    
  0.106008999      0.137287006    
   2.23098998E-03  0.137918994    
   2.40818993E-03  0.138187006    
   1.36759002E-02  0.140940994    
   2.86788009E-02  0.141320005    
   6.99075987E-04  0.141617998    
   7.60165974E-04  0.141686007    
   3.54388007E-03  0.142312005    
   7.36636017E-03  0.142410994    
   1.60798998E-04  0.142526001    
   1.72718996E-04  0.142541006    
   5.96927013E-04  0.142638996    
   1.05819001E-03  0.142654002    
       -1137       -1137
   1.34830998E-05   8.29999975E-04
   1.97461005E-02   6.72800001E-03
   8.09943005E-02   2.08379999E-02
   5.46931997E-02   2.22293995E-02
   4.47511999E-03   2.28611995E-02
   6.62562996E-03   2.31292993E-02
   2.24610996E-02   2.58830003E-02
   1.83421001E-02   2.62624007E-02
   8.23874027E-04   2.65602004E-02
   1.32821000E-03   2.66276002E-02
   5.91812981E-03   2.72538997E-02
   4.92771994E-03   2.73528006E-02
   1.65970996E-04   2.74681002E-02
   2.70180986E-04   2.74826996E-02
   1.00100006E-03   2.75807008E-02
   7.14402995E-04   2.75961999E-02
       -1137       -1137
   9.57629018E-05   5.89800021E-03
   1.19960001E-02   1.96122993E-02
   7.16339971E-04   2.13993993E-02
  0.408719987       2.20311992E-02
   3.36030009E-03   2.48661991E-02
   2.30089994E-04   2.54324004E-02
   9.93089005E-02   2.57302001E-02
   7.64388999E-04   2.61914991E-02
   9.28969006E-04   2.63458993E-02
   6.13040029E-05   2.65228003E-02
   2.15680003E-02   2.66380999E-02
   9.19048980E-05   2.67797001E-02
   1.86799996E-04   2.67271008E-02
   8.86988983E-06   2.67661996E-02
   1.48910003E-05   2.67861001E-02
       -1137       -1137
   2.71499008E-02   1.37142995E-02
   3.60448990E-04   1.41099999E-02
   3.34198994E-04   1.55014005E-02
   3.91177982E-02   1.61332004E-02
  0.343138993       1.64013002E-02
   7.00927014E-03   1.89682003E-02
   7.67056990E-05   1.91549994E-02
   9.42785991E-05   1.95343997E-02
   8.18936992E-03   1.98321994E-02
   7.58647025E-02   1.98995993E-02
   1.41808996E-04   2.02935003E-02
   7.72906991E-04   2.03124005E-02
   1.90638995E-03   2.04479005E-02
   1.89859002E-05   2.05259006E-02
   2.43809009E-05   2.06247997E-02
   1.72158994E-03   2.07400993E-02
   1.59309004E-02   2.07547005E-02
   1.67669004E-05   2.08816994E-02
   8.85745976E-05   2.08838005E-02
   3.81788006E-04   2.08291002E-02
   3.16548994E-06   2.08526999E-02
   3.50598998E-06   2.08682008E-02
   3.04169007E-05   2.08880994E-02
       -1137       -1137
   1.04789997E-05   3.95699986E-04
   2.27220007E-03   1.78709999E-03
   3.75451008E-03   5.44069987E-03
   1.29289995E-03   5.82010020E-03
   1.08109997E-03   6.81164023E-03
   4.59670991E-04   6.91052992E-03
   1.85710000E-04   7.13843014E-03
   6.98260992E-05   7.15393014E-03
       -1137       -1137
   3.20839998E-03   2.02320004E-03
   1.31259998E-03   4.85819997E-03
   5.64920995E-03   5.72220003E-03
   3.66930995E-04   6.33788994E-03
   1.56719994E-03   6.63011009E-03
   7.37511000E-05   6.71915011E-03
   5.88070998E-06   6.77814987E-03
       -1137       -1137
   1.34669999E-05   6.31799980E-04
   3.81980994E-04   8.99899984E-04
   3.03441007E-03   3.46680009E-03
   1.34570000E-03   4.33079991E-03
   9.84023977E-03   4.39823978E-03
   7.94032996E-04   4.94648982E-03
   3.17141006E-04   5.23870997E-03
   2.37780996E-03   5.25330985E-03
   1.57791001E-04   5.32775000E-03
   1.25580000E-05   5.38675021E-03
       -1137       -1137
   2.80591007E-03   3.02179996E-03
   2.16910994E-04   3.40120005E-03
   5.89351989E-02   4.16027987E-03
   6.70792011E-04   4.39273985E-03
   5.23962008E-05   4.49163001E-03
   5.53241977E-03   4.74851020E-03
   1.11100002E-04   4.71953023E-03
   7.41272015E-06   4.73502977E-03
       -1137       -1137
   1.69638998E-03   3.13309999E-03
   2.77129002E-03   3.89218004E-03
   5.43026999E-02   3.91107984E-03
   4.07048006E-04   4.22353018E-03
   2.53348990E-04   4.48040990E-03
   4.87367995E-03   4.48251981E-03
   5.75496997E-05   4.46692994E-03
       -1137       -1137
   1.21769999E-05   1.86799996E-04
   7.38919014E-04   5.66200004E-04
   4.53868997E-04   1.55774003E-03
   4.52819004E-05   1.65662996E-03
   8.67198978E-05   1.88452995E-03
   1.09299999E-05   1.90002995E-03
       -1137       -1137
   1.17670000E-03   6.77199976E-04
   2.54460989E-04   1.29289005E-03
   5.34680985E-05   1.58510997E-03
   5.21840993E-05   1.67415000E-03
   4.16660987E-06   1.73314998E-03
       -1137       -1137
   1.04709998E-05   2.97799997E-04
   1.82660006E-04   3.65240005E-04
   3.54901014E-04   9.13490017E-04
   4.34610993E-05   1.20571000E-03
   2.48060009E-04   1.22030999E-03
   6.90380984E-05   1.29475002E-03
   5.48191019E-06   1.35375001E-03
       -1137       -1137
   4.82740987E-04   4.61279997E-04
   2.38749999E-04   6.93739974E-04
   2.41609996E-05   7.92630017E-04
   2.10049999E-04   1.04950997E-03
   3.85761014E-05   1.02053001E-03
   3.39440999E-06   1.03603001E-03
       -1137       -1137
   1.51719996E-05   3.93839990E-04
   3.60009988E-04   4.12739988E-04
   1.72610002E-04   7.25189981E-04
   1.30629996E-05   9.82069992E-04
   2.16379995E-04   9.84180020E-04
   2.41680009E-05   9.68589971E-04
       -1137       -1137
   2.04640994E-04   4.46630002E-04
   1.24271000E-05   4.61229996E-04
       -1137       -1137
   2.88821000E-04   4.42329998E-04
       -1137       -1137
   1.11639997E-06   7.80499977E-05
   2.66940006E-05   1.76939997E-04
   3.39660005E-06   4.04839986E-04
   7.96121000E-08   4.20339988E-04
       -1137       -1137
   1.28009997E-04   2.14169995E-04
   1.34510001E-05   3.03209992E-04
   1.09849998E-06   3.62210005E-04
       -1137       -1137
   1.44899002E-06   1.15280003E-04
   1.89768998E-05   1.29880005E-04
   9.54487041E-06   2.04319993E-04
   7.57376995E-07   2.63319991E-04
       -1137       -1137
          -1          -1
