  0.291940987      0.102508001    
  0.459542006      0.107042998    
   5.34292012E-02  0.119828001    
  0.104970001      0.120884001    
   2.00260989E-03  0.121466003    
   2.23921007E-03  0.121676996    
   1.35051003E-02  0.124141999    
   2.76420992E-02  0.124422997    
   6.04272005E-04  0.124692000    
   6.78953016E-04  0.124743000    
   3.37061007E-03  0.125275001    
   6.80992985E-03  0.125345007    
   1.29851003E-04  0.125444993    
   1.44471007E-04  0.125455007    
   5.84721973E-04  0.125534996    
   1.07550004E-03  0.125545993    
       -1137       -1137
   1.32309997E-05   7.65000004E-04
   1.16860000E-02   5.29999984E-03
   6.30931035E-02   1.80853996E-02
   5.03610000E-02   1.91415008E-02
   3.12540005E-03   1.97234005E-02
   4.64669988E-03   1.99344996E-02
   1.72409993E-02   2.23987997E-02
   1.60489995E-02   2.26799995E-02
   5.47791016E-04   2.29490995E-02
   8.81090993E-04   2.30002999E-02
   4.33039991E-03   2.35319007E-02
   4.09540022E-03   2.36016996E-02
   1.03509999E-04   2.37016995E-02
   1.68119994E-04   2.37121005E-02
   7.54750974E-04   2.37918999E-02
   6.53920986E-04   2.38031000E-02
       -1137       -1137
   5.30221005E-05   4.53499984E-03
   1.09160002E-02   1.69599000E-02
   5.95940975E-04   1.83764994E-02
  0.382371008       1.89583991E-02
   3.00020003E-03   2.14667991E-02
   1.84320001E-04   2.19149999E-02
   8.90211016E-02   2.21841000E-02
   6.04530971E-04   2.25910004E-02
   7.94460997E-04   2.26996001E-02
   4.67430982E-05   2.28367001E-02
   1.80890001E-02   2.29366999E-02
   3.41660998E-05   2.30537001E-02
   1.60199997E-04   2.30068993E-02
   7.34440982E-06   2.30381005E-02
   1.48239997E-05   2.30564997E-02
       -1137       -1137
   2.34887991E-02   1.24249002E-02
   3.05636990E-04   1.27854003E-02
   2.79528002E-04   1.38414996E-02
   3.68187018E-02   1.44234002E-02
  0.323237002       1.46345003E-02
   6.03115000E-03   1.69318002E-02
   6.70723966E-05   1.70987993E-02
   7.70972983E-05   1.73799992E-02
   7.53124012E-03   1.76490992E-02
   6.92503974E-02   1.77002996E-02
   1.08638997E-04   1.80559997E-02
   5.96715021E-04   1.80698000E-02
   1.57649000E-03   1.81645993E-02
   1.60169002E-05   1.82319004E-02
   1.90638002E-05   1.83016993E-02
   1.48989004E-03   1.84016991E-02
   1.36968996E-02   1.84121002E-02
   6.11474979E-06   1.85186993E-02
   3.27207017E-05   1.85199995E-02
   3.24607012E-04   1.84719004E-02
   2.81398002E-06   1.84918996E-02
   3.03687011E-06   1.85030997E-02
   2.96457001E-05   1.85215008E-02
       -1137       -1137
   1.05589997E-05   3.60500009E-04
   1.48721004E-03   1.41659996E-03
   3.01060989E-03   4.67390008E-03
   1.38790999E-03   4.95509990E-03
   8.26513977E-04   5.80703979E-03
   4.48722014E-04   5.87684987E-03
   1.51531000E-04   6.06695982E-03
   7.61042975E-05   6.07821019E-03
       -1137       -1137
   2.27439008E-03   1.63800002E-03
   1.11990003E-03   4.14639991E-03
   5.30858012E-03   4.86369990E-03
   3.00279004E-04   5.37915993E-03
   1.34349999E-03   5.61631005E-03
   6.15247991E-05   5.68654016E-03
   5.73858006E-06   5.73610980E-03
       -1137       -1137
   1.35999999E-05   5.81900007E-04
   3.34868993E-04   7.92999985E-04
   2.43869005E-03   3.09029990E-03
   1.12150004E-03   3.80759989E-03
   8.33407976E-03   3.85882007E-03
   6.19018974E-04   4.32306016E-03
   2.48458993E-04   4.56020981E-03
   1.88849994E-03   4.57060011E-03
   1.22209996E-04   4.63043991E-03
   1.20579998E-05   4.68001002E-03
       -1137       -1137
   2.52628000E-03   2.67540012E-03
   2.12598999E-04   2.95659993E-03
   5.50695993E-02   3.63256992E-03
   5.94886020E-04   3.80854006E-03
   4.98156987E-05   3.87834990E-03
   2.51607993E-03   4.09530988E-03
   1.01628997E-04   4.06845985E-03
   7.74144974E-06   4.07971023E-03
       -1137       -1137
   1.63298997E-03   2.74550007E-03
   2.62508006E-03   3.42147006E-03
   5.14216982E-02   3.43533000E-03
   3.83826991E-04   3.66725004E-03
   1.17468997E-04   3.88421002E-03
   2.26417999E-03   3.88549990E-03
   5.91085991E-05   3.86860990E-03
       -1137       -1137
   1.34889997E-05   1.67000006E-04
   5.65461989E-04   4.48200008E-04
   3.76723998E-04   1.30014005E-03
   6.59169964E-05   1.36995001E-03
   7.48661987E-05   1.56005996E-03
   1.57377999E-05   1.57130999E-03
       -1137       -1137
   1.08047004E-03   5.50299999E-04
   2.50584999E-04   1.06576004E-03
   6.61145023E-05   1.30291004E-03
   5.11735998E-05   1.37314002E-03
   4.59737021E-06   1.42271002E-03
       -1137       -1137
   1.20200002E-05   2.69100012E-04
   1.90670995E-04   3.20319989E-04
   3.12991004E-04   7.84559990E-04
   3.57680983E-05   1.02170999E-03
   2.09031001E-04   1.03209994E-03
   6.11982032E-05   1.09193998E-03
   5.47161017E-06   1.14150997E-03
       -1137       -1137
   4.90129984E-04   4.06870007E-04
   1.92799998E-04   5.82840003E-04
   2.09730006E-05   6.52650022E-04
   7.26310027E-05   8.69609998E-04
   3.28050010E-05   8.42760026E-04
   3.26660006E-06   8.54009995E-04
       -1137       -1137
   1.74112993E-05   3.55650001E-04
   4.01011988E-04   3.69510002E-04
   1.54270994E-04   6.01430016E-04
   4.81092002E-06   8.18389992E-04
   7.98128021E-05   8.19679990E-04
   2.40681002E-05   8.02789989E-04
       -1137       -1137
   1.16094998E-04   3.45740002E-04
   7.27556016E-06   3.56130011E-04
       -1137       -1137
   1.31509994E-04   3.42270010E-04
       -1137       -1137
   1.35522998E-06   6.73800023E-05
   2.35544994E-05   1.37190000E-04
   3.21653010E-06   3.27299989E-04
   4.96283015E-08   3.38549988E-04
       -1137       -1137
   6.44773027E-05   1.69770006E-04
   7.22602999E-06   2.39999994E-04
   6.92422987E-07   2.89569987E-04
       -1137       -1137
   8.11047983E-07   9.99600015E-05
   9.95517985E-06   1.10350004E-04
   4.39188989E-06   1.70190004E-04
   4.15919004E-07   2.19759997E-04
       -1137       -1137
          -1          -1
