 #
 # Subroutine ELSEPM. Elastic scattering ofelectrons and positrons by
 #       molecules (single-scattering independent-atom approximation)
 #
 # Molecule: Water (vapour)                     
 #
 # Structure:
 # IZ =  8,    X,Y,Z =   0.00000E+00  0.00000E+00  0.00000E+00 cm
 # IZ =  1,    X,Y,Z =   9.57200E-09  0.00000E+00  0.00000E+00 cm
 # IZ =  1,    X,Y,Z =  -2.39990E-09  9.26630E-09  0.00000E+00 cm
 #
 # Projectile: electron
 # Kinetic energy = 7.0000000E+02 eV
 #
 # Furness-McCarthy exchange potential
 #
 # Correlation-polarization potential (Buckingham):
 #    molecular polarizability = 1.45700E-24 cm**3
 #
 # LDA-I absorption potential (only electron-hole excitations):
 #                           Delta = 6.20000E+00 eV
 #                            Aabs = 2.00000E+00
 #
 # Integrated cross sections:
 #                     coherent      incoherent
 #         total cs: 1.0217934E-16  7.7975056E-17
 # 1st transport cs: 9.3704480E-18  9.3118704E-18
 # 2nd transport cs: 1.7607464E-17  1.7442522E-17
 #
 # Differential cross section:                     MU=(1-COS(THETA))/2
 #
 #   THETA           MU         DCS coh      DCS incoh      Sherman
 #   (deg)                     (cm**2/sr)    (cm**2/sr)     function
 #--------------------------------------------------------------------
  0.000000E+00  0.000000E+00  1.838831E-15  7.511701E-16  0.000000E+00
  1.000000E-04  7.615575E-13  1.838831E-15  7.511701E-16  1.362855E-10
  1.250000E-04  1.189937E-12  1.838831E-15  7.511701E-16  1.703568E-10
  1.500000E-04  1.713463E-12  1.838831E-15  7.511701E-16  2.044282E-10
  1.750000E-04  2.332246E-12  1.838831E-15  7.511701E-16  2.384996E-10
  2.000000E-04  3.046174E-12  1.838831E-15  7.511701E-16  2.725709E-10
  2.250000E-04  3.855305E-12  1.838831E-15  7.511701E-16  3.066423E-10
  2.500000E-04  4.759637E-12  1.838831E-15  7.511701E-16  3.407137E-10
  2.750000E-04  5.759171E-12  1.838831E-15  7.511701E-16  3.747850E-10
  3.000000E-04  6.853906E-12  1.838831E-15  7.511701E-16  4.088564E-10
  3.250000E-04  8.043788E-12  1.838831E-15  7.511701E-16  4.429278E-10
  3.500000E-04  9.328927E-12  1.838831E-15  7.511701E-16  4.769991E-10
  3.750000E-04  1.070921E-11  1.838831E-15  7.511701E-16  5.110705E-10
  4.000000E-04  1.218470E-11  1.838831E-15  7.511701E-16  5.451419E-10
  4.250000E-04  1.375539E-11  1.838831E-15  7.511701E-16  5.792132E-10
  4.500000E-04  1.542128E-11  1.838831E-15  7.511701E-16  6.132846E-10
  4.750000E-04  1.718231E-11  1.838831E-15  7.511701E-16  6.473560E-10
  5.000000E-04  1.903860E-11  1.838831E-15  7.511701E-16  6.814273E-10
  5.250000E-04  2.099004E-11  1.838831E-15  7.511701E-16  7.154987E-10
  5.500000E-04  2.303668E-11  1.838831E-15  7.511701E-16  7.495701E-10
  5.750000E-04  2.517853E-11  1.838831E-15  7.511701E-16  7.836414E-10
  6.000000E-04  2.741557E-11  1.838831E-15  7.511701E-16  8.177128E-10
  6.250000E-04  2.974782E-11  1.838831E-15  7.511701E-16  8.517842E-10
  6.500000E-04  3.217521E-11  1.838831E-15  7.511701E-16  8.858555E-10
  6.750000E-04  3.469786E-11  1.838831E-15  7.511700E-16  9.199269E-10
  7.000000E-04  3.731565E-11  1.838831E-15  7.511700E-16  9.539983E-10
  7.250000E-04  4.002865E-11  1.838831E-15  7.511700E-16  9.880696E-10
  7.500000E-04  4.283685E-11  1.838831E-15  7.511700E-16  1.022141E-09
  7.750000E-04  4.574019E-11  1.838831E-15  7.511700E-16  1.056212E-09
  8.000000E-04  4.873879E-11  1.838831E-15  7.511700E-16  1.090284E-09
  8.250000E-04  5.183254E-11  1.838831E-15  7.511700E-16  1.124355E-09
  8.500000E-04  5.502154E-11  1.838831E-15  7.511700E-16  1.158426E-09
  8.750000E-04  5.830569E-11  1.838830E-15  7.511700E-16  1.192498E-09
  9.000000E-04  6.168505E-11  1.838830E-15  7.511700E-16  1.226569E-09
  9.250000E-04  6.515954E-11  1.838830E-15  7.511700E-16  1.260641E-09
  9.500000E-04  6.872930E-11  1.838830E-15  7.511700E-16  1.294712E-09
  9.750000E-04  7.239426E-11  1.838830E-15  7.511700E-16  1.328783E-09
  1.000000E-03  7.615436E-11  1.838830E-15  7.511699E-16  1.362855E-09
  1.250000E-03  1.189912E-10  1.838830E-15  7.511698E-16  1.703568E-09
  1.500000E-03  1.713473E-10  1.838830E-15  7.511697E-16  2.044282E-09
  1.750000E-03  2.332227E-10  1.838829E-15  7.511696E-16  2.384995E-09
  2.000000E-03  3.046174E-10  1.838829E-15  7.511694E-16  2.725708E-09
  2.250000E-03  3.855314E-10  1.838828E-15  7.511692E-16  3.066422E-09
  2.500000E-03  4.759647E-10  1.838828E-15  7.511690E-16  3.407135E-09
  2.750000E-03  5.759173E-10  1.838827E-15  7.511687E-16  3.747848E-09
  3.000000E-03  6.853892E-10  1.838826E-15  7.511685E-16  4.088561E-09
  3.250000E-03  8.043804E-10  1.838825E-15  7.511682E-16  4.429274E-09
  3.500000E-03  9.328908E-10  1.838824E-15  7.511679E-16  4.769987E-09
  3.750000E-03  1.070921E-09  1.838824E-15  7.511676E-16  5.110699E-09
  4.000000E-03  1.218470E-09  1.838822E-15  7.511672E-16  5.451411E-09
  4.250000E-03  1.375538E-09  1.838821E-15  7.511668E-16  5.792124E-09
  4.500000E-03  1.542126E-09  1.838820E-15  7.511664E-16  6.132836E-09
  4.750000E-03  1.718233E-09  1.838819E-15  7.511660E-16  6.473547E-09
  5.000000E-03  1.903859E-09  1.838818E-15  7.511655E-16  6.814259E-09
  5.250000E-03  2.099004E-09  1.838816E-15  7.511651E-16  7.154970E-09
  5.500000E-03  2.303669E-09  1.838815E-15  7.511646E-16  7.495682E-09
  5.750000E-03  2.517853E-09  1.838814E-15  7.511641E-16  7.836393E-09
  6.000000E-03  2.741557E-09  1.838812E-15  7.511635E-16  8.177103E-09
  6.250000E-03  2.974779E-09  1.838810E-15  7.511630E-16  8.517814E-09
  6.500000E-03  3.217521E-09  1.838809E-15  7.511624E-16  8.858524E-09
  6.750000E-03  3.469783E-09  1.838807E-15  7.511618E-16  9.199234E-09
  7.000000E-03  3.731563E-09  1.838805E-15  7.511611E-16  9.539943E-09
  7.250000E-03  4.002863E-09  1.838803E-15  7.511605E-16  9.880652E-09
  7.500000E-03  4.283682E-09  1.838801E-15  7.511598E-16  1.022136E-08
  7.750000E-03  4.574021E-09  1.838799E-15  7.511591E-16  1.056207E-08
  8.000000E-03  4.873879E-09  1.838797E-15  7.511584E-16  1.090278E-08
  8.250000E-03  5.183256E-09  1.838795E-15  7.511576E-16  1.124349E-08
  8.500000E-03  5.502152E-09  1.838793E-15  7.511569E-16  1.158419E-08
  8.750000E-03  5.830568E-09  1.838791E-15  7.511561E-16  1.192490E-08
  9.000000E-03  6.168503E-09  1.838788E-15  7.511553E-16  1.226561E-08
  9.250000E-03  6.515957E-09  1.838786E-15  7.511544E-16  1.260631E-08
  9.500000E-03  6.872931E-09  1.838783E-15  7.511536E-16  1.294702E-08
  9.750000E-03  7.239423E-09  1.838781E-15  7.511527E-16  1.328773E-08
  1.000000E-02  7.615435E-09  1.838778E-15  7.511518E-16  1.362843E-08
  1.250000E-02  1.189912E-08  1.838749E-15  7.511415E-16  1.703546E-08
  1.500000E-02  1.713473E-08  1.838713E-15  7.511289E-16  2.044243E-08
  1.750000E-02  2.332227E-08  1.838670E-15  7.511140E-16  2.384934E-08
  2.000000E-02  3.046174E-08  1.838621E-15  7.510968E-16  2.725617E-08
  2.250000E-02  3.855314E-08  1.838565E-15  7.510773E-16  3.066291E-08
  2.500000E-02  4.759647E-08  1.838502E-15  7.510555E-16  3.406956E-08
  2.750000E-02  5.759173E-08  1.838434E-15  7.510315E-16  3.747609E-08
  3.000000E-02  6.853892E-08  1.838358E-15  7.510051E-16  4.088251E-08
  3.250000E-02  8.043804E-08  1.838276E-15  7.509765E-16  4.428880E-08
  3.500000E-02  9.328908E-08  1.838188E-15  7.509456E-16  4.769495E-08
  3.750000E-02  1.070921E-07  1.838092E-15  7.509124E-16  5.110094E-08
  4.000000E-02  1.218470E-07  1.837991E-15  7.508770E-16  5.450678E-08
  4.250000E-02  1.375538E-07  1.837883E-15  7.508392E-16  5.791244E-08
  4.500000E-02  1.542126E-07  1.837768E-15  7.507992E-16  6.131792E-08
  4.750000E-02  1.718233E-07  1.837647E-15  7.507570E-16  6.472320E-08
  5.000000E-02  1.903859E-07  1.837519E-15  7.507125E-16  6.812828E-08
  5.250000E-02  2.099004E-07  1.837385E-15  7.506657E-16  7.153315E-08
  5.500000E-02  2.303669E-07  1.837245E-15  7.506166E-16  7.493778E-08
  5.750000E-02  2.517853E-07  1.837098E-15  7.505653E-16  7.834219E-08
  6.000000E-02  2.741557E-07  1.836944E-15  7.505117E-16  8.174635E-08
  6.250000E-02  2.974779E-07  1.836784E-15  7.504559E-16  8.515025E-08
  6.500000E-02  3.217521E-07  1.836618E-15  7.503979E-16  8.855388E-08
  6.750000E-02  3.469782E-07  1.836445E-15  7.503376E-16  9.195724E-08
  7.000000E-02  3.731563E-07  1.836266E-15  7.502751E-16  9.536032E-08
  7.250000E-02  4.002863E-07  1.836080E-15  7.502103E-16  9.876309E-08
  7.500000E-02  4.283682E-07  1.835888E-15  7.501433E-16  1.021656E-07
  7.750000E-02  4.574020E-07  1.835690E-15  7.500741E-16  1.055677E-07
  8.000000E-02  4.873878E-07  1.835485E-15  7.500027E-16  1.089695E-07
  8.250000E-02  5.183255E-07  1.835274E-15  7.499291E-16  1.123710E-07
  8.500000E-02  5.502151E-07  1.835056E-15  7.498532E-16  1.157722E-07
  8.750000E-02  5.830567E-07  1.834833E-15  7.497752E-16  1.191730E-07
  9.000000E-02  6.168501E-07  1.834603E-15  7.496949E-16  1.225734E-07
  9.250000E-02  6.515956E-07  1.834366E-15  7.496125E-16  1.259734E-07
  9.500000E-02  6.872929E-07  1.834124E-15  7.495279E-16  1.293731E-07
  9.750000E-02  7.239422E-07  1.833875E-15  7.494411E-16  1.327723E-07
  1.000000E-01  7.615434E-07  1.833619E-15  7.493521E-16  1.361712E-07
  1.250000E-01  1.189911E-06  1.830728E-15  7.483442E-16  1.701357E-07
  1.500000E-01  1.713472E-06  1.827233E-15  7.471265E-16  2.040503E-07
  1.750000E-01  2.332225E-06  1.823156E-15  7.457071E-16  2.379074E-07
  2.000000E-01  3.046171E-06  1.818524E-15  7.440954E-16  2.717007E-07
  2.250000E-01  3.855309E-06  1.813364E-15  7.423018E-16  3.054252E-07
  2.500000E-01  4.759640E-06  1.807708E-15  7.403378E-16  3.390776E-07
  2.750000E-01  5.759162E-06  1.801590E-15  7.382155E-16  3.726564E-07
  3.000000E-01  6.853876E-06  1.795044E-15  7.359477E-16  4.061621E-07
  3.250000E-01  8.043782E-06  1.788107E-15  7.335475E-16  4.395970E-07
  3.500000E-01  9.328879E-06  1.780817E-15  7.310286E-16  4.729659E-07
  3.750000E-01  1.070917E-05  1.773211E-15  7.284045E-16  5.062755E-07
  4.000000E-01  1.218465E-05  1.765327E-15  7.256889E-16  5.395350E-07
  4.250000E-01  1.375532E-05  1.757203E-15  7.228951E-16  5.727555E-07
  4.500000E-01  1.542118E-05  1.748875E-15  7.200364E-16  6.059506E-07
  4.750000E-01  1.718223E-05  1.740380E-15  7.171253E-16  6.391357E-07
  5.000000E-01  1.903847E-05  1.731750E-15  7.141739E-16  6.723282E-07
  5.250000E-01  2.098990E-05  1.723019E-15  7.111937E-16  7.055474E-07
  5.500000E-01  2.303652E-05  1.714217E-15  7.081952E-16  7.388138E-07
  5.750000E-01  2.517832E-05  1.705373E-15  7.051882E-16  7.721491E-07
  6.000000E-01  2.741532E-05  1.696511E-15  7.021818E-16  8.055762E-07
  6.250000E-01  2.974750E-05  1.687657E-15  6.991837E-16  8.391181E-07
  6.500000E-01  3.217487E-05  1.678830E-15  6.962011E-16  8.727983E-07
  6.750000E-01  3.469743E-05  1.670049E-15  6.932400E-16  9.066397E-07
  7.000000E-01  3.731517E-05  1.661330E-15  6.903055E-16  9.406648E-07
  7.250000E-01  4.002810E-05  1.652686E-15  6.874018E-16  9.748948E-07
  7.500000E-01  4.283621E-05  1.644128E-15  6.845321E-16  1.009350E-06
  7.750000E-01  4.573951E-05  1.635664E-15  6.816988E-16  1.044047E-06
  8.000000E-01  4.873800E-05  1.627300E-15  6.789036E-16  1.079003E-06
  8.250000E-01  5.183166E-05  1.619041E-15  6.761473E-16  1.114230E-06
  8.500000E-01  5.502051E-05  1.610888E-15  6.734302E-16  1.149738E-06
  8.750000E-01  5.830454E-05  1.602842E-15  6.707517E-16  1.185536E-06
  9.000000E-01  6.168376E-05  1.594901E-15  6.681111E-16  1.221627E-06
  9.250000E-01  6.515815E-05  1.587063E-15  6.655070E-16  1.258013E-06
  9.500000E-01  6.872773E-05  1.579325E-15  6.629376E-16  1.294690E-06
  9.750000E-01  7.239249E-05  1.571682E-15  6.604010E-16  1.331653E-06
  1.000000E+00  7.615242E-05  1.564129E-15  6.578950E-16  1.368893E-06
  1.100000E+00  9.214394E-05  1.534690E-15  6.481309E-16  1.520365E-06
  1.200000E+00  1.096583E-04  1.506200E-15  6.386755E-16  1.674973E-06
  1.300000E+00  1.286953E-04  1.478327E-15  6.294196E-16  1.831394E-06
  1.400000E+00  1.492551E-04  1.450879E-15  6.203106E-16  1.988506E-06
  1.500000E+00  1.713375E-04  1.423810E-15  6.113482E-16  2.145777E-06
  1.600000E+00  1.949425E-04  1.397179E-15  6.025636E-16  2.303438E-06
  1.700000E+00  2.200699E-04  1.371087E-15  5.939927E-16  2.462365E-06
  1.800000E+00  2.467198E-04  1.345616E-15  5.856566E-16  2.623732E-06
  1.900000E+00  2.748920E-04  1.320799E-15  5.775531E-16  2.788554E-06
  2.000000E+00  3.045865E-04  1.296608E-15  5.696602E-16  2.957320E-06
  2.100000E+00  3.358031E-04  1.272980E-15  5.619465E-16  3.129848E-06
  2.200000E+00  3.685418E-04  1.249835E-15  5.543833E-16  3.305425E-06
  2.300000E+00  4.028024E-04  1.227106E-15  5.469517E-16  3.483150E-06
  2.400000E+00  4.385850E-04  1.204751E-15  5.396449E-16  3.662334E-06
  2.500000E+00  4.758892E-04  1.182755E-15  5.324644E-16  3.842775E-06
  2.600000E+00  5.147151E-04  1.161124E-15  5.254140E-16  4.024808E-06
  2.700000E+00  5.550625E-04  1.139865E-15  5.184948E-16  4.209124E-06
  2.800000E+00  5.969313E-04  1.118987E-15  5.117029E-16  4.396464E-06
  2.900000E+00  6.403214E-04  1.098486E-15  5.050294E-16  4.587329E-06
  3.000000E+00  6.852326E-04  1.078350E-15  4.984644E-16  4.781843E-06
  3.100000E+00  7.316648E-04  1.058559E-15  4.919987E-16  4.979807E-06
  3.200000E+00  7.796179E-04  1.039093E-15  4.856264E-16  5.180895E-06
  3.300000E+00  8.290917E-04  1.019933E-15  4.793446E-16  5.384861E-06
  3.400000E+00  8.800860E-04  1.001063E-15  4.731516E-16  5.591663E-06
  3.500000E+00  9.326008E-04  9.824730E-16  4.670455E-16  5.801438E-06
  3.600000E+00  9.866358E-04  9.641548E-16  4.610230E-16  6.014374E-06
  3.700000E+00  1.042191E-03  9.461044E-16  4.550794E-16  6.230579E-06
  3.800000E+00  1.099266E-03  9.283200E-16  4.492098E-16  6.450037E-06
  3.900000E+00  1.157861E-03  9.108010E-16  4.434105E-16  6.672695E-06
  4.000000E+00  1.217975E-03  8.935468E-16  4.376793E-16  6.898621E-06
  4.100000E+00  1.279609E-03  8.765554E-16  4.320159E-16  7.128131E-06
  4.200000E+00  1.342761E-03  8.598216E-16  4.264201E-16  7.361776E-06
  4.300000E+00  1.407433E-03  8.433376E-16  4.208911E-16  7.600146E-06
  4.400000E+00  1.473624E-03  8.270934E-16  4.154265E-16  7.843584E-06
  4.500000E+00  1.541333E-03  8.110789E-16  4.100225E-16  8.091956E-06
  4.600000E+00  1.610561E-03  7.952867E-16  4.046748E-16  8.344624E-06
  4.700000E+00  1.681307E-03  7.797134E-16  3.993799E-16  8.600709E-06
  4.800000E+00  1.753570E-03  7.643598E-16  3.941363E-16  8.859535E-06
  4.900000E+00  1.827352E-03  7.492297E-16  3.889443E-16  9.121069E-06
  5.000000E+00  1.902651E-03  7.343273E-16  3.838055E-16  9.386118E-06
  5.100000E+00  1.979467E-03  7.196540E-16  3.787214E-16  9.656128E-06
  5.200000E+00  2.057801E-03  7.052076E-16  3.736921E-16  9.932636E-06
  5.300000E+00  2.137651E-03  6.909819E-16  3.687161E-16  1.021658E-05
  5.400000E+00  2.219018E-03  6.769688E-16  3.637904E-16  1.050783E-05
  5.500000E+00  2.301901E-03  6.631608E-16  3.589113E-16  1.080514E-05
  5.600000E+00  2.386300E-03  6.495537E-16  3.540764E-16  1.110667E-05
  5.700000E+00  2.472215E-03  6.361473E-16  3.492848E-16  1.141085E-05
  5.800000E+00  2.559646E-03  6.229448E-16  3.445375E-16  1.171719E-05
  5.900000E+00  2.648591E-03  6.099507E-16  3.398365E-16  1.202667E-05
  6.000000E+00  2.739052E-03  5.971684E-16  3.351837E-16  1.234145E-05
  6.100000E+00  2.831028E-03  5.845982E-16  3.305800E-16  1.266406E-05
  6.200000E+00  2.924518E-03  5.722367E-16  3.260246E-16  1.299625E-05
  6.300000E+00  3.019522E-03  5.600781E-16  3.215152E-16  1.333819E-05
  6.400000E+00  3.116040E-03  5.481162E-16  3.170493E-16  1.368837E-05
  6.500000E+00  3.214072E-03  5.363466E-16  3.126249E-16  1.404420E-05
  6.600000E+00  3.313617E-03  5.247675E-16  3.082414E-16  1.440321E-05
  6.700000E+00  3.414675E-03  5.133804E-16  3.038996E-16  1.476429E-05
  6.800000E+00  3.517246E-03  5.021881E-16  2.996012E-16  1.512825E-05
  6.900000E+00  3.621329E-03  4.911932E-16  2.953481E-16  1.549763E-05
  7.000000E+00  3.726924E-03  4.803964E-16  2.911410E-16  1.587566E-05
  7.100000E+00  3.834031E-03  4.697959E-16  2.869797E-16  1.626480E-05
  7.200000E+00  3.942649E-03  4.593878E-16  2.828629E-16  1.666567E-05
  7.300000E+00  4.052779E-03  4.491673E-16  2.787886E-16  1.707679E-05
  7.400000E+00  4.164419E-03  4.391302E-16  2.747556E-16  1.749521E-05
  7.500000E+00  4.277569E-03  4.292741E-16  2.707634E-16  1.791797E-05
  7.600000E+00  4.392230E-03  4.195987E-16  2.668124E-16  1.834342E-05
  7.700000E+00  4.508400E-03  4.101047E-16  2.629038E-16  1.877211E-05
  7.800000E+00  4.626080E-03  4.007932E-16  2.590389E-16  1.920659E-05
  7.900000E+00  4.745268E-03  3.916641E-16  2.552184E-16  1.965023E-05
  8.000000E+00  4.865966E-03  3.827160E-16  2.514422E-16  2.010579E-05
  8.100000E+00  4.988171E-03  3.739460E-16  2.477095E-16  2.057413E-05
  8.200000E+00  5.111885E-03  3.653506E-16  2.440191E-16  2.105391E-05
  8.300000E+00  5.237105E-03  3.569261E-16  2.403701E-16  2.154230E-05
  8.400000E+00  5.363834E-03  3.486699E-16  2.367621E-16  2.203635E-05
  8.500000E+00  5.492068E-03  3.405805E-16  2.331954E-16  2.253443E-05
  8.600000E+00  5.621809E-03  3.326571E-16  2.296705E-16  2.303702E-05
  8.700000E+00  5.753057E-03  3.248990E-16  2.261881E-16  2.354641E-05
  8.800000E+00  5.885809E-03  3.173054E-16  2.227487E-16  2.406565E-05
  8.900000E+00  6.020067E-03  3.098744E-16  2.193521E-16  2.459705E-05
  9.000000E+00  6.155830E-03  3.026038E-16  2.159977E-16  2.514118E-05
  9.100000E+00  6.293097E-03  2.954906E-16  2.126850E-16  2.569667E-05
  9.200000E+00  6.431867E-03  2.885318E-16  2.094133E-16  2.626100E-05
  9.300000E+00  6.572142E-03  2.817250E-16  2.061823E-16  2.683191E-05
  9.400000E+00  6.713919E-03  2.750680E-16  2.029922E-16  2.740847E-05
  9.500000E+00  6.857199E-03  2.685590E-16  1.998430E-16  2.799157E-05
  9.600000E+00  7.001981E-03  2.621963E-16  1.967350E-16  2.858343E-05
  9.700000E+00  7.148265E-03  2.559782E-16  1.936680E-16  2.918632E-05
  9.800000E+00  7.296051E-03  2.499025E-16  1.906420E-16  2.980145E-05
  9.900000E+00  7.445337E-03  2.439668E-16  1.876564E-16  3.042830E-05
  1.000000E+01  7.596123E-03  2.381688E-16  1.847109E-16  3.106496E-05
  1.025000E+01  7.979651E-03  2.242602E-16  1.775205E-16  3.268780E-05
  1.050000E+01  8.372546E-03  2.111613E-16  1.705763E-16  3.436207E-05
  1.075000E+01  8.774801E-03  1.988370E-16  1.638747E-16  3.611145E-05
  1.100000E+01  9.186408E-03  1.872514E-16  1.574100E-16  3.791444E-05
  1.125000E+01  9.607360E-03  1.763714E-16  1.511792E-16  3.975435E-05
  1.150000E+01  1.003765E-02  1.661630E-16  1.451786E-16  4.166955E-05
  1.175000E+01  1.047726E-02  1.565893E-16  1.394008E-16  4.365696E-05
  1.200000E+01  1.092620E-02  1.476176E-16  1.338406E-16  4.566416E-05
  1.225000E+01  1.138445E-02  1.392186E-16  1.284955E-16  4.771593E-05
  1.250000E+01  1.185200E-02  1.313595E-16  1.233593E-16  4.986022E-05
  1.275000E+01  1.232884E-02  1.240066E-16  1.184232E-16  5.203979E-05
  1.300000E+01  1.281497E-02  1.171325E-16  1.136835E-16  5.421594E-05
  1.325000E+01  1.331037E-02  1.107110E-16  1.091367E-16  5.646290E-05
  1.350000E+01  1.381504E-02  1.047122E-16  1.047746E-16  5.878386E-05
  1.375000E+01  1.432897E-02  9.910859E-17  1.005897E-16  6.108623E-05
  1.400000E+01  1.485214E-02  9.387762E-17  9.657879E-17  6.339732E-05
  1.425000E+01  1.538455E-02  8.899592E-17  9.273676E-17  6.579410E-05
  1.450000E+01  1.592618E-02  8.443854E-17  8.905529E-17  6.820082E-05
  1.475000E+01  1.647703E-02  8.018412E-17  8.552868E-17  7.056033E-05
  1.500000E+01  1.703709E-02  7.621398E-17  8.215328E-17  7.297028E-05
  1.525000E+01  1.760634E-02  7.250817E-17  7.892291E-17  7.543123E-05
  1.550000E+01  1.818477E-02  6.904732E-17  7.583059E-17  7.782528E-05
  1.575000E+01  1.877238E-02  6.581509E-17  7.287167E-17  8.020197E-05
  1.600000E+01  1.936915E-02  6.279591E-17  7.004168E-17  8.265526E-05
  1.625000E+01  1.997507E-02  5.997384E-17  6.733468E-17  8.507046E-05
  1.650000E+01  2.059013E-02  5.733457E-17  6.474525E-17  8.739069E-05
  1.675000E+01  2.121432E-02  5.486536E-17  6.226899E-17  8.976472E-05
