 #
 # Subroutine ELSEPM. Elastic scattering ofelectrons and positrons by
 #       molecules (single-scattering independent-atom approximation)
 #
 # Molecule: Water (vapour)                     
 #
 # Structure:
 # IZ =  8,    X,Y,Z =   0.00000E+00  0.00000E+00  0.00000E+00 cm
 # IZ =  1,    X,Y,Z =   9.57200E-09  0.00000E+00  0.00000E+00 cm
 # IZ =  1,    X,Y,Z =  -2.39990E-09  9.26630E-09  0.00000E+00 cm
 #
 # Projectile: electron
 # Kinetic energy = 2.0000000E+04 eV
 #
 # Furness-McCarthy exchange potential
 #
 # No correlation-polarization potential
 #
 # LDA-I absorption potential (only electron-hole excitations):
 #                           Delta = 6.20000E+00 eV
 #                            Aabs = 2.00000E+00
 #
 # Integrated cross sections:
 #                     coherent      incoherent
 #         total cs: 4.6394467E-18  3.9405011E-18
 # 1st transport cs: 3.2468424E-20  3.2456468E-20
 # 2nd transport cs: 8.1346263E-20  8.1310260E-20
 #
 # Differential cross section:                     MU=(1-COS(THETA))/2
 #
 #   THETA           MU         DCS coh      DCS incoh      Sherman
 #   (deg)                     (cm**2/sr)    (cm**2/sr)     function
 #--------------------------------------------------------------------
  0.000000E+00  0.000000E+00  9.995378E-16  4.844342E-16  0.000000E+00
  1.000000E-04  7.615575E-13  9.995378E-16  4.844342E-16  4.103823E-11
  1.250000E-04  1.189937E-12  9.995378E-16  4.844342E-16  5.129778E-11
  1.500000E-04  1.713463E-12  9.995378E-16  4.844342E-16  6.155734E-11
  1.750000E-04  2.332246E-12  9.995378E-16  4.844342E-16  7.181690E-11
  2.000000E-04  3.046174E-12  9.995378E-16  4.844342E-16  8.207645E-11
  2.250000E-04  3.855305E-12  9.995378E-16  4.844342E-16  9.233601E-11
  2.500000E-04  4.759637E-12  9.995378E-16  4.844342E-16  1.025956E-10
  2.750000E-04  5.759171E-12  9.995378E-16  4.844342E-16  1.128551E-10
  3.000000E-04  6.853906E-12  9.995378E-16  4.844342E-16  1.231147E-10
  3.250000E-04  8.043788E-12  9.995378E-16  4.844342E-16  1.333742E-10
  3.500000E-04  9.328927E-12  9.995378E-16  4.844342E-16  1.436338E-10
  3.750000E-04  1.070921E-11  9.995378E-16  4.844342E-16  1.538934E-10
  4.000000E-04  1.218470E-11  9.995378E-16  4.844342E-16  1.641529E-10
  4.250000E-04  1.375539E-11  9.995377E-16  4.844342E-16  1.744125E-10
  4.500000E-04  1.542128E-11  9.995377E-16  4.844342E-16  1.846720E-10
  4.750000E-04  1.718231E-11  9.995377E-16  4.844342E-16  1.949316E-10
  5.000000E-04  1.903860E-11  9.995377E-16  4.844342E-16  2.051911E-10
  5.250000E-04  2.099004E-11  9.995377E-16  4.844342E-16  2.154507E-10
  5.500000E-04  2.303668E-11  9.995377E-16  4.844342E-16  2.257103E-10
  5.750000E-04  2.517853E-11  9.995377E-16  4.844342E-16  2.359698E-10
  6.000000E-04  2.741557E-11  9.995377E-16  4.844342E-16  2.462294E-10
  6.250000E-04  2.974782E-11  9.995377E-16  4.844342E-16  2.564889E-10
  6.500000E-04  3.217521E-11  9.995376E-16  4.844342E-16  2.667485E-10
  6.750000E-04  3.469786E-11  9.995376E-16  4.844342E-16  2.770080E-10
  7.000000E-04  3.731565E-11  9.995376E-16  4.844342E-16  2.872676E-10
  7.250000E-04  4.002865E-11  9.995376E-16  4.844342E-16  2.975272E-10
  7.500000E-04  4.283685E-11  9.995376E-16  4.844342E-16  3.077867E-10
  7.750000E-04  4.574019E-11  9.995376E-16  4.844342E-16  3.180463E-10
  8.000000E-04  4.873879E-11  9.995376E-16  4.844342E-16  3.283058E-10
  8.250000E-04  5.183254E-11  9.995375E-16  4.844342E-16  3.385654E-10
  8.500000E-04  5.502154E-11  9.995375E-16  4.844342E-16  3.488250E-10
  8.750000E-04  5.830569E-11  9.995375E-16  4.844341E-16  3.590845E-10
  9.000000E-04  6.168505E-11  9.995375E-16  4.844341E-16  3.693441E-10
  9.250000E-04  6.515954E-11  9.995375E-16  4.844341E-16  3.796036E-10
  9.500000E-04  6.872930E-11  9.995375E-16  4.844341E-16  3.898632E-10
  9.750000E-04  7.239426E-11  9.995374E-16  4.844341E-16  4.001228E-10
  1.000000E-03  7.615436E-11  9.995374E-16  4.844341E-16  4.103823E-10
  1.250000E-03  1.189912E-10  9.995372E-16  4.844341E-16  5.129780E-10
  1.500000E-03  1.713473E-10  9.995369E-16  4.844340E-16  6.155736E-10
  1.750000E-03  2.332227E-10  9.995366E-16  4.844339E-16  7.181693E-10
  2.000000E-03  3.046174E-10  9.995362E-16  4.844338E-16  8.207651E-10
  2.250000E-03  3.855314E-10  9.995358E-16  4.844337E-16  9.233609E-10
  2.500000E-03  4.759647E-10  9.995353E-16  4.844336E-16  1.025957E-09
  2.750000E-03  5.759173E-10  9.995348E-16  4.844334E-16  1.128553E-09
  3.000000E-03  6.853892E-10  9.995342E-16  4.844333E-16  1.231149E-09
  3.250000E-03  8.043804E-10  9.995335E-16  4.844331E-16  1.333745E-09
  3.500000E-03  9.328908E-10  9.995329E-16  4.844329E-16  1.436341E-09
  3.750000E-03  1.070921E-09  9.995321E-16  4.844327E-16  1.538937E-09
  4.000000E-03  1.218470E-09  9.995313E-16  4.844325E-16  1.641534E-09
  4.250000E-03  1.375538E-09  9.995305E-16  4.844323E-16  1.744130E-09
  4.500000E-03  1.542126E-09  9.995296E-16  4.844320E-16  1.846727E-09
  4.750000E-03  1.718233E-09  9.995287E-16  4.844318E-16  1.949323E-09
  5.000000E-03  1.903859E-09  9.995277E-16  4.844315E-16  2.051920E-09
  5.250000E-03  2.099004E-09  9.995267E-16  4.844313E-16  2.154517E-09
  5.500000E-03  2.303669E-09  9.995256E-16  4.844310E-16  2.257114E-09
  5.750000E-03  2.517853E-09  9.995244E-16  4.844307E-16  2.359712E-09
  6.000000E-03  2.741557E-09  9.995232E-16  4.844303E-16  2.462309E-09
  6.250000E-03  2.974779E-09  9.995220E-16  4.844300E-16  2.564907E-09
  6.500000E-03  3.217521E-09  9.995207E-16  4.844297E-16  2.667505E-09
  6.750000E-03  3.469783E-09  9.995194E-16  4.844293E-16  2.770102E-09
  7.000000E-03  3.731563E-09  9.995180E-16  4.844289E-16  2.872701E-09
  7.250000E-03  4.002863E-09  9.995165E-16  4.844286E-16  2.975299E-09
  7.500000E-03  4.283682E-09  9.995150E-16  4.844282E-16  3.077897E-09
  7.750000E-03  4.574021E-09  9.995135E-16  4.844278E-16  3.180496E-09
  8.000000E-03  4.873879E-09  9.995119E-16  4.844273E-16  3.283095E-09
  8.250000E-03  5.183256E-09  9.995102E-16  4.844269E-16  3.385694E-09
  8.500000E-03  5.502152E-09  9.995085E-16  4.844264E-16  3.488294E-09
  8.750000E-03  5.830568E-09  9.995068E-16  4.844260E-16  3.590893E-09
  9.000000E-03  6.168503E-09  9.995050E-16  4.844255E-16  3.693493E-09
  9.250000E-03  6.515957E-09  9.995032E-16  4.844250E-16  3.796093E-09
  9.500000E-03  6.872931E-09  9.995013E-16  4.844245E-16  3.898693E-09
  9.750000E-03  7.239423E-09  9.994993E-16  4.844240E-16  4.001294E-09
  1.000000E-02  7.615435E-09  9.994973E-16  4.844234E-16  4.103895E-09
  1.250000E-02  1.189912E-08  9.994745E-16  4.844174E-16  5.129919E-09
  1.500000E-02  1.713473E-08  9.994467E-16  4.844100E-16  6.155978E-09
  1.750000E-02  2.332227E-08  9.994138E-16  4.844012E-16  7.182077E-09
  2.000000E-02  3.046174E-08  9.993758E-16  4.843911E-16  8.208224E-09
  2.250000E-02  3.855314E-08  9.993327E-16  4.843796E-16  9.234424E-09
  2.500000E-02  4.759647E-08  9.992846E-16  4.843668E-16  1.026069E-08
  2.750000E-02  5.759173E-08  9.992315E-16  4.843527E-16  1.128702E-08
  3.000000E-02  6.853892E-08  9.991733E-16  4.843372E-16  1.231342E-08
  3.250000E-02  8.043804E-08  9.991100E-16  4.843203E-16  1.333991E-08
  3.500000E-02  9.328908E-08  9.990417E-16  4.843022E-16  1.436648E-08
  3.750000E-02  1.070921E-07  9.989683E-16  4.842826E-16  1.539315E-08
  4.000000E-02  1.218470E-07  9.988898E-16  4.842617E-16  1.641992E-08
  4.250000E-02  1.375538E-07  9.988064E-16  4.842395E-16  1.744680E-08
  4.500000E-02  1.542126E-07  9.987178E-16  4.842159E-16  1.847379E-08
  4.750000E-02  1.718233E-07  9.986242E-16  4.841910E-16  1.950091E-08
  5.000000E-02  1.903859E-07  9.985256E-16  4.841647E-16  2.052815E-08
  5.250000E-02  2.099004E-07  9.984219E-16  4.841371E-16  2.155553E-08
  5.500000E-02  2.303669E-07  9.983132E-16  4.841082E-16  2.258305E-08
  5.750000E-02  2.517853E-07  9.981995E-16  4.840779E-16  2.361072E-08
  6.000000E-02  2.741557E-07  9.980807E-16  4.840462E-16  2.463855E-08
  6.250000E-02  2.974779E-07  9.979568E-16  4.840133E-16  2.566654E-08
  6.500000E-02  3.217521E-07  9.978280E-16  4.839789E-16  2.669470E-08
  6.750000E-02  3.469782E-07  9.976941E-16  4.839433E-16  2.772304E-08
  7.000000E-02  3.731563E-07  9.975551E-16  4.839063E-16  2.875156E-08
  7.250000E-02  4.002863E-07  9.974112E-16  4.838679E-16  2.978026E-08
  7.500000E-02  4.283682E-07  9.972622E-16  4.838282E-16  3.080917E-08
  7.750000E-02  4.574020E-07  9.971082E-16  4.837872E-16  3.183828E-08
  8.000000E-02  4.873878E-07  9.969492E-16  4.837448E-16  3.286760E-08
  8.250000E-02  5.183255E-07  9.967852E-16  4.837011E-16  3.389713E-08
  8.500000E-02  5.502151E-07  9.966162E-16  4.836560E-16  3.492689E-08
  8.750000E-02  5.830567E-07  9.964422E-16  4.836097E-16  3.595688E-08
  9.000000E-02  6.168501E-07  9.962631E-16  4.835619E-16  3.698711E-08
  9.250000E-02  6.515956E-07  9.960791E-16  4.835129E-16  3.801758E-08
  9.500000E-02  6.872929E-07  9.958900E-16  4.834625E-16  3.904830E-08
  9.750000E-02  7.239422E-07  9.956960E-16  4.834107E-16  4.007928E-08
  1.000000E-01  7.615434E-07  9.954970E-16  4.833577E-16  4.111053E-08
  1.250000E-01  1.189911E-06  9.932334E-16  4.827537E-16  5.143900E-08
  1.500000E-01  1.713472E-06  9.904760E-16  4.820170E-16  6.180138E-08
  1.750000E-01  2.332225E-06  9.872302E-16  4.811485E-16  7.220445E-08
  2.000000E-01  3.046171E-06  9.835022E-16  4.801493E-16  8.265500E-08
  2.250000E-01  3.855309E-06  9.792995E-16  4.790207E-16  9.315984E-08
  2.500000E-01  4.759640E-06  9.746302E-16  4.777640E-16  1.037258E-07
  2.750000E-01  5.759162E-06  9.695032E-16  4.763807E-16  1.143596E-07
  3.000000E-01  6.853876E-06  9.639284E-16  4.748726E-16  1.250681E-07
  3.250000E-01  8.043782E-06  9.579165E-16  4.732414E-16  1.358582E-07
  3.500000E-01  9.328879E-06  9.514787E-16  4.714891E-16  1.467367E-07
  3.750000E-01  1.070917E-05  9.446272E-16  4.696179E-16  1.577103E-07
  4.000000E-01  1.218465E-05  9.373746E-16  4.676298E-16  1.687861E-07
  4.250000E-01  1.375532E-05  9.297342E-16  4.655273E-16  1.799707E-07
  4.500000E-01  1.542118E-05  9.217198E-16  4.633127E-16  1.912712E-07
  4.750000E-01  1.718223E-05  9.133459E-16  4.609888E-16  2.026943E-07
  5.000000E-01  1.903847E-05  9.046273E-16  4.585580E-16  2.142469E-07
  5.250000E-01  2.098990E-05  8.955793E-16  4.560231E-16  2.259360E-07
  5.500000E-01  2.303652E-05  8.862173E-16  4.533871E-16  2.377684E-07
  5.750000E-01  2.517832E-05  8.765574E-16  4.506528E-16  2.497510E-07
  6.000000E-01  2.741532E-05  8.666157E-16  4.478231E-16  2.618908E-07
  6.250000E-01  2.974750E-05  8.564085E-16  4.449012E-16  2.741946E-07
  6.500000E-01  3.217487E-05  8.459524E-16  4.418902E-16  2.866694E-07
  6.750000E-01  3.469743E-05  8.352640E-16  4.387933E-16  2.993220E-07
  7.000000E-01  3.731517E-05  8.243599E-16  4.356136E-16  3.121594E-07
  7.250000E-01  4.002810E-05  8.132569E-16  4.323544E-16  3.251885E-07
  7.500000E-01  4.283621E-05  8.019716E-16  4.290190E-16  3.384162E-07
  7.750000E-01  4.573951E-05  7.905206E-16  4.256107E-16  3.518493E-07
  8.000000E-01  4.873800E-05  7.789202E-16  4.221329E-16  3.654947E-07
  8.250000E-01  5.183166E-05  7.671869E-16  4.185889E-16  3.793593E-07
  8.500000E-01  5.502051E-05  7.553365E-16  4.149821E-16  3.934499E-07
  8.750000E-01  5.830454E-05  7.433851E-16  4.113157E-16  4.077732E-07
  9.000000E-01  6.168376E-05  7.313480E-16  4.075932E-16  4.223361E-07
  9.250000E-01  6.515815E-05  7.192407E-16  4.038179E-16  4.371451E-07
  9.500000E-01  6.872773E-05  7.070779E-16  3.999930E-16  4.522071E-07
  9.750000E-01  7.239249E-05  6.948742E-16  3.961220E-16  4.675286E-07
  1.000000E+00  7.615242E-05  6.826438E-16  3.922080E-16  4.831162E-07
  1.100000E+00  9.214394E-05  6.337232E-16  3.761867E-16  5.482551E-07
  1.200000E+00  1.096583E-04  5.853928E-16  3.597295E-16  6.181520E-07
  1.300000E+00  1.286953E-04  5.383351E-16  3.430231E-16  6.931755E-07
  1.400000E+00  1.492551E-04  4.931025E-16  3.262381E-16  7.736522E-07
  1.500000E+00  1.713375E-04  4.501188E-16  3.095267E-16  8.598533E-07
  1.600000E+00  1.949425E-04  4.096865E-16  2.930223E-16  9.519814E-07
  1.700000E+00  2.200699E-04  3.719985E-16  2.768383E-16  1.050156E-06
  1.800000E+00  2.467198E-04  3.371516E-16  2.610697E-16  1.154401E-06
  1.900000E+00  2.748920E-04  3.051627E-16  2.457928E-16  1.264633E-06
  2.000000E+00  3.045865E-04  2.759833E-16  2.310676E-16  1.380653E-06
  2.100000E+00  3.358031E-04  2.495148E-16  2.169385E-16  1.502139E-06
  2.200000E+00  3.685418E-04  2.256217E-16  2.034366E-16  1.628652E-06
  2.300000E+00  4.028024E-04  2.041428E-16  1.905809E-16  1.759749E-06
  2.400000E+00  4.385850E-04  1.849020E-16  1.783800E-16  1.894484E-06
  2.500000E+00  4.758892E-04  1.677152E-16  1.668343E-16  2.032325E-06
  2.600000E+00  5.147151E-04  1.523980E-16  1.559367E-16  2.172499E-06
  2.700000E+00  5.550625E-04  1.387696E-16  1.456742E-16  2.314245E-06
  2.800000E+00  5.969313E-04  1.266569E-16  1.360296E-16  2.456774E-06
  2.900000E+00  6.403214E-04  1.158969E-16  1.269819E-16  2.599354E-06
  3.000000E+00  6.852326E-04  1.063379E-16  1.185074E-16  2.741334E-06
  3.100000E+00  7.316648E-04  9.784098E-17  1.105809E-16  2.882174E-06
  3.200000E+00  7.796179E-04  9.027955E-17  1.031757E-16  3.021457E-06
  3.300000E+00  8.290917E-04  8.353971E-17  9.626488E-17  3.158894E-06
  3.400000E+00  8.800860E-04  7.751951E-17  8.982100E-17  3.294322E-06
  3.500000E+00  9.326008E-04  7.212839E-17  8.381709E-17  3.427689E-06
  3.600000E+00  9.866358E-04  6.728633E-17  7.822660E-17  3.559024E-06
  3.700000E+00  1.042191E-03  6.292301E-17  7.302375E-17  3.688421E-06
  3.800000E+00  1.099266E-03  5.897689E-17  6.818366E-17  3.816001E-06
  3.900000E+00  1.157861E-03  5.539434E-17  6.368248E-17  3.941889E-06
  4.000000E+00  1.217975E-03  5.212881E-17  5.949747E-17  4.066191E-06
  4.100000E+00  1.279609E-03  4.913996E-17  5.560705E-17  4.188968E-06
  4.200000E+00  1.342761E-03  4.639299E-17  5.199080E-17  4.310224E-06
  4.300000E+00  1.407433E-03  4.385791E-17  4.862952E-17  4.429898E-06
  4.400000E+00  1.473624E-03  4.150897E-17  4.550514E-17  4.547852E-06
  4.500000E+00  1.541333E-03  3.932402E-17  4.260076E-17  4.663877E-06
  4.600000E+00  1.610561E-03  3.728414E-17  3.990057E-17  4.777682E-06
  4.700000E+00  1.681307E-03  3.537311E-17  3.738981E-17  4.888904E-06
  4.800000E+00  1.753570E-03  3.357705E-17  3.505474E-17  4.997107E-06
  4.900000E+00  1.827352E-03  3.188414E-17  3.288258E-17  5.101782E-06
  5.000000E+00  1.902651E-03  3.028425E-17  3.086144E-17  5.202356E-06
  5.100000E+00  1.979467E-03  2.876876E-17  2.898031E-17  5.298187E-06
  5.200000E+00  2.057801E-03  2.733031E-17  2.722895E-17  5.388570E-06
  5.300000E+00  2.137651E-03  2.596261E-17  2.559787E-17  5.472742E-06
  5.400000E+00  2.219018E-03  2.466030E-17  2.407828E-17  5.549873E-06
  5.500000E+00  2.301901E-03  2.341878E-17  2.266205E-17  5.619075E-06
  5.600000E+00  2.386300E-03  2.223413E-17  2.134163E-17  5.679392E-06
  5.700000E+00  2.472215E-03  2.110299E-17  2.011005E-17  5.729805E-06
  5.800000E+00  2.559646E-03  2.002246E-17  1.896085E-17  5.769219E-06
  5.900000E+00  2.648591E-03  1.899006E-17  1.788805E-17  5.796467E-06
  6.000000E+00  2.739052E-03  1.800362E-17  1.688611E-17  5.810302E-06
  6.100000E+00  2.831028E-03  1.706126E-17  1.594993E-17  5.809394E-06
  6.200000E+00  2.924518E-03  1.616132E-17  1.507476E-17  5.792335E-06
  6.300000E+00  3.019522E-03  1.530234E-17  1.425623E-17  5.757635E-06
  6.400000E+00  3.116040E-03  1.448300E-17  1.349027E-17  5.703731E-06
  6.500000E+00  3.214072E-03  1.370210E-17  1.277314E-17  5.628992E-06
  6.600000E+00  3.313617E-03  1.295853E-17  1.210137E-17  5.531737E-06
  6.700000E+00  3.414675E-03  1.225126E-17  1.147176E-17  5.410251E-06
  6.800000E+00  3.517246E-03  1.157930E-17  1.088132E-17  5.262804E-06
  6.900000E+00  3.621329E-03  1.094169E-17  1.032732E-17  5.087687E-06
  7.000000E+00  3.726924E-03  1.033749E-17  9.807221E-18  4.883246E-06
  7.100000E+00  3.834031E-03  9.765756E-18  9.318665E-18  4.647919E-06
  7.200000E+00  3.942649E-03  9.225553E-18  8.859480E-18  4.380287E-06
  7.300000E+00  4.052779E-03  8.715925E-18  8.427655E-18  4.079126E-06
  7.400000E+00  4.164419E-03  8.235895E-18  8.021329E-18  3.743463E-06
  7.500000E+00  4.277569E-03  7.784466E-18  7.638780E-18  3.372630E-06
  7.600000E+00  4.392230E-03  7.360613E-18  7.278412E-18  2.966327E-06
  7.700000E+00  4.508400E-03  6.963286E-18  6.938750E-18  0.000000E+00
  7.800000E+00  4.626080E-03  6.591405E-18  6.618425E-18  0.000000E+00
  7.900000E+00  4.745268E-03  6.243869E-18  6.316172E-18  0.000000E+00
  8.000000E+00  4.865966E-03  5.919553E-18  6.030816E-18  0.000000E+00
  8.100000E+00  4.988171E-03  5.617313E-18  5.761268E-18  0.000000E+00
  8.200000E+00  5.111885E-03  5.335993E-18  5.506517E-18  0.000000E+00
  8.300000E+00  5.237105E-03  5.074426E-18  5.265627E-18  0.000000E+00
  8.400000E+00  5.363834E-03  4.831446E-18  5.037724E-18  0.000000E+00
  8.500000E+00  5.492068E-03  4.605887E-18  4.822001E-18  0.000000E+00
  8.600000E+00  5.621809E-03  4.396594E-18  4.617703E-18  0.000000E+00
  8.700000E+00  5.753057E-03  4.202429E-18  4.424129E-18 -3.461406E-06
  8.800000E+00  5.885809E-03  4.022275E-18  4.240627E-18 -4.148460E-06
  8.900000E+00  6.020067E-03  3.855045E-18  4.066589E-18 -4.836045E-06
  9.000000E+00  6.155830E-03  3.699687E-18  3.901446E-18 -5.520500E-06
  9.100000E+00  6.293097E-03  3.555186E-18  3.744669E-18 -6.198585E-06
  9.200000E+00  6.431867E-03  3.420575E-18  3.595765E-18 -6.867590E-06
  9.300000E+00  6.572142E-03  3.294933E-18  3.454269E-18 -7.525426E-06
  9.400000E+00  6.713919E-03  3.177393E-18  3.319751E-18 -8.170693E-06
  9.500000E+00  6.857199E-03  3.067143E-18  3.191807E-18 -8.802725E-06
  9.600000E+00  7.001981E-03  2.963426E-18  3.070058E-18 -9.421615E-06
  9.700000E+00  7.148265E-03  2.865546E-18  2.954151E-18 -1.002821E-05
  9.800000E+00  7.296051E-03  2.772864E-18  2.843754E-18 -1.062411E-05
  9.900000E+00  7.445337E-03  2.684801E-18  2.738556E-18 -1.121161E-05
  1.000000E+01  7.596123E-03  2.600836E-18  2.638267E-18 -1.179365E-05
  1.025000E+01  7.979651E-03  2.405931E-18  2.407269E-18 -1.324948E-05
  1.050000E+01  8.372546E-03  2.228050E-18  2.201470E-18 -1.476325E-05
  1.075000E+01  8.774801E-03  2.063217E-18  2.017616E-18 -1.641637E-05
  1.100000E+01  9.186408E-03  1.908962E-18  1.852928E-18 -1.829516E-05
  1.125000E+01  9.607360E-03  1.763957E-18  1.705034E-18 -2.048233E-05
  1.150000E+01  1.003765E-02  1.627660E-18  1.571899E-18 -2.304853E-05
  1.175000E+01  1.047726E-02  1.500001E-18  1.451779E-18 -2.604448E-05
  1.200000E+01  1.092620E-02  1.381127E-18  1.343168E-18 -2.949451E-05
  1.225000E+01  1.138445E-02  1.271220E-18  1.244763E-18 -3.339247E-05
  1.250000E+01  1.185200E-02  1.170381E-18  1.155430E-18 -3.770052E-05
  1.275000E+01  1.232884E-02  1.078562E-18  1.074178E-18 -4.235150E-05
  1.300000E+01  1.281497E-02  9.955516E-19  1.000136E-18 -4.725464E-05
  1.325000E+01  1.331037E-02  9.209778E-19  9.325390E-19 -5.230417E-05
  1.350000E+01  1.381504E-02  8.543361E-19  8.707090E-19 -5.739001E-05
  1.375000E+01  1.432897E-02  7.950180E-19  8.140489E-19 -6.240930E-05
  1.400000E+01  1.485214E-02  7.423415E-19  7.620316E-19 -6.727758E-05
  1.425000E+01  1.538455E-02  6.955797E-19  7.141926E-19 -7.193816E-05
  1.450000E+01  1.592618E-02  6.539844E-19  6.701233E-19 -7.636838E-05
  1.475000E+01  1.647703E-02  6.168085E-19  6.294643E-19 -8.058182E-05
  1.500000E+01  1.703709E-02  5.833256E-19  5.918992E-19 -8.462625E-05
  1.525000E+01  1.760634E-02  5.528501E-19  5.571483E-19 -8.857791E-05
  1.550000E+01  1.818477E-02  5.247563E-19  5.249629E-19 -9.253356E-05
  1.575000E+01  1.877238E-02  4.984977E-19  4.951201E-19 -9.660195E-05
  1.600000E+01  1.936915E-02  4.736225E-19  4.674183E-19 -1.008963E-04
  1.625000E+01  1.997507E-02  4.497862E-19  4.416744E-19 -1.055282E-04
  1.650000E+01  2.059013E-02  4.267570E-19  4.177206E-19 -1.106034E-04
  1.675000E+01  2.121432E-02  4.044131E-19  3.954043E-19 -1.162170E-04
  1.700000E+01  2.184762E-02  3.827315E-19  3.745861E-19 -1.224476E-04
