 #
 # Subroutine ELSEPM. Elastic scattering ofelectrons and positrons by
 #       molecules (single-scattering independent-atom approximation)
 #
 # Molecule: Water (vapour)                     
 #
 # Structure:
 # IZ =  8,    X,Y,Z =   0.00000E+00  0.00000E+00  0.00000E+00 cm
 # IZ =  1,    X,Y,Z =   9.57200E-09  0.00000E+00  0.00000E+00 cm
 # IZ =  1,    X,Y,Z =  -2.39990E-09  9.26630E-09  0.00000E+00 cm
 #
 # Projectile: electron
 # Kinetic energy = 7.0000000E+06 eV
 #
 # Furness-McCarthy exchange potential
 #
 # No correlation-polarization potential
 #
 # No absorption potential
 #
 # Integrated cross sections:
 #                     coherent      incoherent
 #         total cs: 3.4932774E-19  2.9778515E-19
 # 1st transport cs: 1.9947991E-24  1.9938403E-24
 # 2nd transport cs: 5.7389552E-24  5.7360799E-24
 #
 # Differential cross section:                     MU=(1-COS(THETA))/2
 #
 #   THETA           MU         DCS coh      DCS incoh      Sherman
 #   (deg)                     (cm**2/sr)    (cm**2/sr)     function
 #--------------------------------------------------------------------
  0.000000E+00  0.000000E+00  2.000506E-13  9.721323E-14  0.000000E+00
  1.000000E-04  7.615575E-13  2.000484E-13  9.721266E-14  0.000000E+00
  1.250000E-04  1.189937E-12  2.000472E-13  9.721233E-14  0.000000E+00
  1.500000E-04  1.713463E-12  2.000457E-13  9.721194E-14  0.000000E+00
  1.750000E-04  2.332246E-12  2.000440E-13  9.721147E-14  0.000000E+00
  2.000000E-04  3.046174E-12  2.000420E-13  9.721094E-14  0.000000E+00
  2.250000E-04  3.855305E-12  2.000397E-13  9.721033E-14  0.000000E+00
  2.500000E-04  4.759637E-12  2.000371E-13  9.720965E-14  0.000000E+00
  2.750000E-04  5.759171E-12  2.000343E-13  9.720890E-14  0.000000E+00
  3.000000E-04  6.853906E-12  2.000312E-13  9.720807E-14  0.000000E+00
  3.250000E-04  8.043788E-12  2.000278E-13  9.720718E-14  0.000000E+00
  3.500000E-04  9.328927E-12  2.000241E-13  9.720621E-14  0.000000E+00
  3.750000E-04  1.070921E-11  2.000202E-13  9.720518E-14  0.000000E+00
  4.000000E-04  1.218470E-11  2.000160E-13  9.720407E-14  0.000000E+00
  4.250000E-04  1.375539E-11  2.000116E-13  9.720289E-14  0.000000E+00
  4.500000E-04  1.542128E-11  2.000069E-13  9.720163E-14  0.000000E+00
  4.750000E-04  1.718231E-11  2.000019E-13  9.720031E-14  0.000000E+00
  5.000000E-04  1.903860E-11  1.999966E-13  9.719891E-14  0.000000E+00
  5.250000E-04  2.099004E-11  1.999911E-13  9.719745E-14  0.000000E+00
  5.500000E-04  2.303668E-11  1.999853E-13  9.719591E-14  0.000000E+00
  5.750000E-04  2.517853E-11  1.999792E-13  9.719430E-14  0.000000E+00
  6.000000E-04  2.741557E-11  1.999728E-13  9.719262E-14  0.000000E+00
  6.250000E-04  2.974782E-11  1.999662E-13  9.719086E-14  0.000000E+00
  6.500000E-04  3.217521E-11  1.999593E-13  9.718904E-14  0.000000E+00
  6.750000E-04  3.469786E-11  1.999522E-13  9.718714E-14  0.000000E+00
  7.000000E-04  3.731565E-11  1.999448E-13  9.718517E-14  0.000000E+00
  7.250000E-04  4.002865E-11  1.999371E-13  9.718314E-14  0.000000E+00
  7.500000E-04  4.283685E-11  1.999291E-13  9.718102E-14  0.000000E+00
  7.750000E-04  4.574019E-11  1.999209E-13  9.717884E-14  0.000000E+00
  8.000000E-04  4.873879E-11  1.999124E-13  9.717659E-14  0.000000E+00
  8.250000E-04  5.183254E-11  1.999036E-13  9.717426E-14  0.000000E+00
  8.500000E-04  5.502154E-11  1.998946E-13  9.717187E-14  0.000000E+00
  8.750000E-04  5.830569E-11  1.998853E-13  9.716940E-14  0.000000E+00
  9.000000E-04  6.168505E-11  1.998757E-13  9.716686E-14  0.000000E+00
  9.250000E-04  6.515954E-11  1.998659E-13  9.716425E-14  0.000000E+00
  9.500000E-04  6.872930E-11  1.998557E-13  9.716157E-14  0.000000E+00
  9.750000E-04  7.239426E-11  1.998454E-13  9.715881E-14  0.000000E+00
  1.000000E-03  7.615436E-11  1.998347E-13  9.715599E-14  0.000000E+00
  1.250000E-03  1.189912E-10  1.997134E-13  9.712381E-14  0.000000E+00
  1.500000E-03  1.713473E-10  1.995653E-13  9.708451E-14  0.000000E+00
  1.750000E-03  2.332227E-10  1.993904E-13  9.703809E-14  0.000000E+00
  2.000000E-03  3.046174E-10  1.991889E-13  9.698457E-14  0.000000E+00
  2.250000E-03  3.855314E-10  1.989608E-13  9.692397E-14  0.000000E+00
  2.500000E-03  4.759647E-10  1.987063E-13  9.685631E-14  0.000000E+00
  2.750000E-03  5.759173E-10  1.984255E-13  9.678161E-14  0.000000E+00
  3.000000E-03  6.853892E-10  1.981186E-13  9.669989E-14  0.000000E+00
  3.250000E-03  8.043804E-10  1.977857E-13  9.661119E-14  0.000000E+00
  3.500000E-03  9.328908E-10  1.974269E-13  9.651552E-14  0.000000E+00
  3.750000E-03  1.070921E-09  1.970426E-13  9.641293E-14  0.000000E+00
  4.000000E-03  1.218470E-09  1.966328E-13  9.630344E-14  0.000000E+00
  4.250000E-03  1.375538E-09  1.961978E-13  9.618710E-14  0.000000E+00
  4.500000E-03  1.542126E-09  1.957379E-13  9.606393E-14  0.000000E+00
  4.750000E-03  1.718233E-09  1.952532E-13  9.593399E-14  0.000000E+00
  5.000000E-03  1.903859E-09  1.947440E-13  9.579730E-14  0.000000E+00
  5.250000E-03  2.099004E-09  1.942105E-13  9.565392E-14  0.000000E+00
  5.500000E-03  2.303669E-09  1.936531E-13  9.550390E-14  0.000000E+00
  5.750000E-03  2.517853E-09  1.930721E-13  9.534727E-14  0.000000E+00
  6.000000E-03  2.741557E-09  1.924676E-13  9.518410E-14  0.000000E+00
  6.250000E-03  2.974779E-09  1.918401E-13  9.501442E-14  0.000000E+00
  6.500000E-03  3.217521E-09  1.911898E-13  9.483831E-14  0.000000E+00
  6.750000E-03  3.469783E-09  1.905171E-13  9.465580E-14  0.000000E+00
  7.000000E-03  3.731563E-09  1.898223E-13  9.446697E-14  0.000000E+00
  7.250000E-03  4.002863E-09  1.891057E-13  9.427186E-14  0.000000E+00
  7.500000E-03  4.283682E-09  1.883678E-13  9.407055E-14  0.000000E+00
  7.750000E-03  4.574021E-09  1.876088E-13  9.386309E-14  0.000000E+00
  8.000000E-03  4.873879E-09  1.868291E-13  9.364955E-14  0.000000E+00
  8.250000E-03  5.183256E-09  1.860292E-13  9.342999E-14  0.000000E+00
  8.500000E-03  5.502152E-09  1.852093E-13  9.320449E-14  0.000000E+00
  8.750000E-03  5.830568E-09  1.843700E-13  9.297310E-14  0.000000E+00
  9.000000E-03  6.168503E-09  1.835116E-13  9.273591E-14  0.000000E+00
  9.250000E-03  6.515957E-09  1.826344E-13  9.249298E-14  0.000000E+00
  9.500000E-03  6.872931E-09  1.817390E-13  9.224439E-14  0.000000E+00
  9.750000E-03  7.239423E-09  1.808257E-13  9.199021E-14  0.000000E+00
  1.000000E-02  7.615435E-09  1.798949E-13  9.173052E-14  0.000000E+00
  1.250000E-02  1.189912E-08  1.697246E-13  8.884800E-14  0.000000E+00
  1.500000E-02  1.713473E-08  1.583018E-13  8.550545E-14  0.000000E+00
  1.750000E-02  2.332227E-08  1.460814E-13  8.179202E-14  0.000000E+00
  2.000000E-02  3.046174E-08  1.334956E-13  7.779876E-14  0.000000E+00
  2.250000E-02  3.855314E-08  1.209291E-13  7.361432E-14  0.000000E+00
  2.500000E-02  4.759647E-08  1.087033E-13  6.932157E-14  0.000000E+00
  2.750000E-02  5.759173E-08  9.706860E-14  6.499506E-14  0.000000E+00
  3.000000E-02  6.853892E-08  8.620382E-14  6.069952E-14  0.000000E+00
  3.250000E-02  8.043804E-08  7.622206E-14  5.648910E-14  0.000000E+00
  3.500000E-02  9.328908E-08  6.717936E-14  5.240742E-14  0.000000E+00
  3.750000E-02  1.070921E-07  5.908543E-14  4.848809E-14  0.000000E+00
  4.000000E-02  1.218470E-07  5.191462E-14  4.475555E-14  0.000000E+00
  4.250000E-02  1.375538E-07  4.561615E-14  4.122618E-14  0.000000E+00
  4.500000E-02  1.542126E-07  4.012306E-14  3.790948E-14  0.000000E+00
  4.750000E-02  1.718233E-07  3.535952E-14  3.480926E-14  0.000000E+00
  5.000000E-02  1.903859E-07  3.124647E-14  3.192473E-14  0.000000E+00
  5.250000E-02  2.099004E-07  2.770586E-14  2.925153E-14  0.000000E+00
  5.500000E-02  2.303669E-07  2.466342E-14  2.678263E-14  0.000000E+00
  5.750000E-02  2.517853E-07  2.205052E-14  2.450904E-14  0.000000E+00
  6.000000E-02  2.741557E-07  1.980512E-14  2.242050E-14  0.000000E+00
  6.250000E-02  2.974779E-07  1.787213E-14  2.050596E-14  0.000000E+00
  6.500000E-02  3.217521E-07  1.620334E-14  1.875398E-14  0.000000E+00
  6.750000E-02  3.469782E-07  1.475709E-14  1.715308E-14  0.000000E+00
  7.000000E-02  3.731563E-07  1.349775E-14  1.569194E-14  0.000000E+00
  7.250000E-02  4.002863E-07  1.239510E-14  1.435962E-14  0.000000E+00
  7.500000E-02  4.283682E-07  1.142370E-14  1.314562E-14  0.000000E+00
  7.750000E-02  4.574020E-07  1.056229E-14  1.204003E-14  0.000000E+00
  8.000000E-02  4.873878E-07  9.793194E-15  1.103352E-14  0.000000E+00
  8.250000E-02  5.183255E-07  9.101759E-15  1.011743E-14  0.000000E+00
  8.500000E-02  5.502151E-07  8.475916E-15  9.283676E-15  0.000000E+00
  8.750000E-02  5.830567E-07  7.905743E-15  8.524840E-15  0.000000E+00
  9.000000E-02  6.168501E-07  7.383106E-15  7.834085E-15  0.000000E+00
  9.250000E-02  6.515956E-07  6.901350E-15  7.205149E-15  0.000000E+00
  9.500000E-02  6.872929E-07  6.455040E-15  6.632310E-15  0.000000E+00
  9.750000E-02  7.239422E-07  6.039744E-15  6.110355E-15  0.000000E+00
  1.000000E-01  7.615434E-07  5.651850E-15  5.634538E-15  0.000000E+00
  1.250000E-01  1.189911E-06  2.836763E-15  2.639473E-15  0.000000E+00
  1.500000E-01  1.713472E-06  1.355581E-15  1.360741E-15  0.000000E+00
  1.750000E-01  2.332225E-06  7.240300E-16  7.652898E-16  0.000000E+00
  2.000000E-01  3.046171E-06  4.667229E-16  4.632708E-16  0.000000E+00
  2.250000E-01  3.855309E-06  3.091190E-16  2.978447E-16  0.000000E+00
  2.500000E-01  4.759640E-06  1.999507E-16  2.010322E-16  0.000000E+00
  2.750000E-01  5.759162E-06  1.369018E-16  1.411220E-16  0.000000E+00
  3.000000E-01  6.853876E-06  1.026800E-16  1.022794E-16  0.000000E+00
  3.250000E-01  8.043782E-06  7.810344E-17  7.609953E-17  0.000000E+00
  3.500000E-01  9.328879E-06  5.755006E-17  5.787288E-17  0.000000E+00
  3.750000E-01  1.070917E-05  4.387653E-17  4.483286E-17  0.000000E+00
  4.000000E-01  1.218465E-05  3.547879E-17  3.528555E-17  0.000000E+00
  4.250000E-01  1.375532E-05  2.864794E-17  2.815586E-17  0.000000E+00
  4.500000E-01  1.542118E-05  2.264628E-17  2.273973E-17  0.000000E+00
  4.750000E-01  1.718223E-05  1.826038E-17  1.856337E-17  0.000000E+00
  5.000000E-01  1.903847E-05  1.537160E-17  1.530023E-17  0.000000E+00
  5.250000E-01  2.098990E-05  1.290544E-17  1.272050E-17  0.000000E+00
  5.500000E-01  2.303652E-05  1.060356E-17  1.065942E-17  0.000000E+00
  5.750000E-01  2.517832E-05  8.887945E-18  8.996916E-18  0.000000E+00
  6.000000E-01  2.741532E-05  7.677346E-18  7.644208E-18  0.000000E+00
  6.250000E-01  2.974750E-05  6.608757E-18  6.534760E-18  0.000000E+00
  6.500000E-01  3.217487E-05  5.594462E-18  5.618124E-18  0.000000E+00
  6.750000E-01  3.469743E-05  4.803214E-18  4.855632E-18  0.000000E+00
  7.000000E-01  3.731517E-05  4.238025E-18  4.217349E-18  0.000000E+00
  7.250000E-01  4.002810E-05  3.713857E-18  3.679890E-18  0.000000E+00
  7.500000E-01  4.283621E-05  3.210283E-18  3.224833E-18  0.000000E+00
  7.750000E-01  4.573951E-05  2.813804E-18  2.837553E-18  0.000000E+00
  8.000000E-01  4.873800E-05  2.516447E-18  2.506354E-18  0.000000E+00
  8.250000E-01  5.183166E-05  2.240250E-18  2.221817E-18  0.000000E+00
  8.500000E-01  5.502051E-05  1.967353E-18  1.976312E-18  0.000000E+00
  8.750000E-01  5.830454E-05  1.750553E-18  1.763620E-18  0.000000E+00
  9.000000E-01  6.168376E-05  1.585865E-18  1.578642E-18  0.000000E+00
  9.250000E-01  6.515815E-05  1.426350E-18  1.417175E-18  0.000000E+00
  9.500000E-01  6.872773E-05  1.270629E-18  1.275741E-18  0.000000E+00
  9.750000E-01  7.239249E-05  1.144024E-18  1.151443E-18  0.000000E+00
  1.000000E+00  7.615242E-05  1.046228E-18  1.041858E-18  0.000000E+00
  1.100000E+00  9.214394E-05  7.173694E-19  7.144666E-19  0.000000E+00
  1.200000E+00  1.096583E-04  5.080671E-19  5.058850E-19  0.000000E+00
  1.300000E+00  1.286953E-04  3.694249E-19  3.680325E-19  0.000000E+00
  1.400000E+00  1.492551E-04  2.751559E-19  2.740318E-19  0.000000E+00
  1.500000E+00  1.713375E-04  2.089715E-19  2.081825E-19  0.000000E+00
  1.600000E+00  1.949425E-04  1.615545E-19  1.609591E-19  0.000000E+00
  1.700000E+00  2.200699E-04  1.268699E-19  1.263884E-19  0.000000E+00
  1.800000E+00  2.467198E-04  1.009578E-19  1.006152E-19  0.000000E+00
  1.900000E+00  2.748920E-04  8.137908E-20  8.108640E-20  0.000000E+00
  2.000000E+00  3.045865E-04  6.629169E-20  6.607235E-20  0.000000E+00
  2.100000E+00  3.358031E-04  5.455353E-20  5.437711E-20  0.000000E+00
  2.200000E+00  3.685418E-04  4.530612E-20  4.515834E-20  0.000000E+00
  2.300000E+00  4.028024E-04  3.792380E-20  3.781276E-20  0.000000E+00
  2.400000E+00  4.385850E-04  3.199974E-20  3.190177E-20  0.000000E+00
  2.500000E+00  4.758892E-04  2.717767E-20  2.710197E-20  0.000000E+00
  2.600000E+00  5.147151E-04  2.323508E-20  2.317189E-20  0.000000E+00
  2.700000E+00  5.550625E-04  1.998297E-20  1.992911E-20  0.000000E+00
  2.800000E+00  5.969313E-04  1.727592E-20  1.723433E-20  0.000000E+00
  2.900000E+00  6.403214E-04  1.501755E-20  1.498007E-20  0.000000E+00
  3.000000E+00  6.852326E-04  1.311193E-20  1.308269E-20  0.000000E+00
  3.100000E+00  7.316648E-04  1.150149E-20  1.147649E-20  0.000000E+00
  3.200000E+00  7.796179E-04  1.013086E-20  1.010944E-20  0.000000E+00
  3.300000E+00  8.290917E-04  8.956753E-21  8.940054E-21  0.000000E+00
  3.400000E+00  8.800860E-04  7.950303E-21  7.935013E-21  0.000000E+00
  3.500000E+00  9.326008E-04  7.079179E-21  7.067355E-21  0.000000E+00
  3.600000E+00  9.866358E-04  6.325432E-21  6.315149E-21  0.000000E+00
  3.700000E+00  1.042191E-03  5.669199E-21  5.660439E-21  0.000000E+00
  3.800000E+00  1.099266E-03  5.095213E-21  5.088442E-21  0.000000E+00
  3.900000E+00  1.157861E-03  4.593216E-21  4.586930E-21  0.000000E+00
  4.000000E+00  1.217975E-03  4.150426E-21  4.145731E-21  0.000000E+00
  4.100000E+00  1.279609E-03  3.760483E-21  3.756343E-21  0.000000E+00
  4.200000E+00  1.342761E-03  3.415076E-21  3.411633E-21  0.000000E+00
  4.300000E+00  1.407433E-03  3.108155E-21  3.105589E-21  0.000000E+00
  4.400000E+00  1.473624E-03  2.835539E-21  2.833118E-21  0.000000E+00
  4.500000E+00  1.541333E-03  2.591544E-21  2.589896E-21  0.000000E+00
  4.600000E+00  1.610561E-03  2.373710E-21  2.372234E-21  0.000000E+00
  4.700000E+00  1.681307E-03  2.178114E-21  2.176974E-21  0.000000E+00
  4.800000E+00  1.753570E-03  2.002157E-21  2.001405E-21  0.000000E+00
  4.900000E+00  1.827352E-03  1.843926E-21  1.843192E-21  0.000000E+00
  5.000000E+00  1.902651E-03  1.700658E-21  1.700315E-21  0.000000E+00
  5.100000E+00  1.979467E-03  1.571346E-21  1.571023E-21  0.000000E+00
  5.200000E+00  2.057801E-03  1.453951E-21  1.453796E-21  0.000000E+00
  5.300000E+00  2.137651E-03  1.347296E-21  1.347307E-21  0.000000E+00
  5.400000E+00  2.219018E-03  1.250411E-21  1.250396E-21  0.000000E+00
  5.500000E+00  2.301901E-03  1.161862E-21  1.162048E-21  0.000000E+00
  5.600000E+00  2.386300E-03  1.081221E-21  1.081371E-21  0.000000E+00
  5.700000E+00  2.472215E-03  1.007341E-21  1.007578E-21  0.000000E+00
  5.800000E+00  2.559646E-03  9.396809E-22  9.399774E-22  0.000000E+00
  5.900000E+00  2.648591E-03  8.776935E-22  8.779542E-22  0.000000E+00
  6.000000E+00  2.739052E-03  8.206024E-22  8.209662E-22  0.000000E+00
  6.100000E+00  2.831028E-03  7.682186E-22  7.685304E-22  0.000000E+00
  6.200000E+00  2.924518E-03  7.198587E-22  7.202166E-22  0.000000E+00
  6.300000E+00  3.019522E-03  6.752743E-22  6.756425E-22  0.000000E+00
  6.400000E+00  3.116040E-03  6.341311E-22  6.344659E-22  0.000000E+00
  6.500000E+00  3.214072E-03  5.959936E-22  5.963800E-22  0.000000E+00
  6.600000E+00  3.313617E-03  5.607767E-22  5.611113E-22  0.000000E+00
  6.700000E+00  3.414675E-03  5.280531E-22  5.284131E-22  0.000000E+00
  6.800000E+00  3.517246E-03  4.977147E-22  4.980631E-22  0.000000E+00
  6.900000E+00  3.621329E-03  4.695412E-22  4.698627E-22  0.000000E+00
  7.000000E+00  3.726924E-03  4.432859E-22  4.436312E-22  0.000000E+00
  7.100000E+00  3.834031E-03  4.189051E-22  4.192054E-22  0.000000E+00
  7.200000E+00  3.942649E-03  3.961245E-22  3.964394E-22  0.000000E+00
  7.300000E+00  4.052779E-03  3.749038E-22  3.751984E-22  0.000000E+00
  7.400000E+00  4.164419E-03  3.550870E-22  3.553620E-22  0.000000E+00
  7.500000E+00  4.277569E-03  3.365365E-22  3.368203E-22  0.000000E+00
  7.600000E+00  4.392230E-03  3.192252E-22  3.194725E-22  0.000000E+00
  7.700000E+00  4.508400E-03  3.029719E-22  3.032281E-22  0.000000E+00
  7.800000E+00  4.626080E-03  2.877698E-22  2.880038E-22  0.000000E+00
  7.900000E+00  4.745268E-03  2.735026E-22  2.737234E-22  0.000000E+00
  8.000000E+00  4.865966E-03  2.600963E-22  2.603178E-22  0.000000E+00
  8.100000E+00  4.988171E-03  2.475301E-22  2.477234E-22  0.000000E+00
  8.200000E+00  5.111885E-03  2.356828E-22  2.358817E-22  0.000000E+00
  8.300000E+00  5.237105E-03  2.245617E-22  2.247397E-22  0.000000E+00
  8.400000E+00  5.363834E-03  2.140782E-22  2.142482E-22  0.000000E+00
  8.500000E+00  5.492068E-03  2.041957E-22  2.043622E-22  0.000000E+00
  8.600000E+00  5.621809E-03  1.948945E-22  1.950401E-22  0.000000E+00
  8.700000E+00  5.753057E-03  1.860946E-22  1.862439E-22  0.000000E+00
  8.800000E+00  5.885809E-03  1.778072E-22  1.779382E-22  0.000000E+00
  8.900000E+00  6.020067E-03  1.699637E-22  1.700906E-22  0.000000E+00
  9.000000E+00  6.155830E-03  1.625499E-22  1.626711E-22  0.000000E+00
  9.100000E+00  6.293097E-03  1.555454E-22  1.556520E-22  0.000000E+00
  9.200000E+00  6.431867E-03  1.488989E-22  1.490077E-22  0.000000E+00
  9.300000E+00  6.572142E-03  1.426206E-22  1.427143E-22  0.000000E+00
  9.400000E+00  6.713919E-03  1.366576E-22  1.367497E-22  0.000000E+00
  9.500000E+00  6.857199E-03  1.310081E-22  1.310938E-22  0.000000E+00
  9.600000E+00  7.001981E-03  1.256513E-22  1.257274E-22  0.000000E+00
  9.700000E+00  7.148265E-03  1.205558E-22  1.206329E-22  0.000000E+00
  9.800000E+00  7.296051E-03  1.157289E-22  1.157940E-22  0.000000E+00
  9.900000E+00  7.445337E-03  1.111300E-22  1.111954E-22  0.000000E+00
  1.000000E+01  7.596123E-03  1.067641E-22  1.068229E-22  0.000000E+00
  1.025000E+01  7.979651E-03  9.684559E-23  9.679655E-23  0.000000E+00
  1.050000E+01  8.372546E-03  8.788093E-23  8.791987E-23  0.000000E+00
  1.075000E+01  8.774801E-03  8.007143E-23  8.003817E-23  0.000000E+00
  1.100000E+01  9.186408E-03  7.299587E-23  7.302059E-23  0.000000E+00
  1.125000E+01  9.607360E-03  6.677761E-23  6.675576E-23  0.000000E+00
  1.150000E+01  1.003765E-02  6.113406E-23  6.114888E-23  0.000000E+00
  1.175000E+01  1.047726E-02  5.613239E-23  5.611865E-23  0.000000E+00
  1.200000E+01  1.092620E-02  5.158719E-23  5.159534E-23  0.000000E+00
  1.225000E+01  1.138445E-02  4.752693E-23  4.751887E-23  0.000000E+00
  1.250000E+01  1.185200E-02  4.383337E-23  4.383723E-23  0.000000E+00
  1.275000E+01  1.232884E-02  4.050959E-23  4.050543E-23  0.000000E+00
  1.300000E+01  1.281497E-02  3.748304E-23  3.748428E-23  0.000000E+00
  1.325000E+01  1.331037E-02  3.474120E-23  3.473968E-23  0.000000E+00
  1.350000E+01  1.381504E-02  3.224201E-23  3.224178E-23  0.000000E+00
  1.375000E+01  1.432897E-02  2.996422E-23  2.996442E-23  0.000000E+00
  1.400000E+01  1.485214E-02  2.788560E-23  2.788465E-23  0.000000E+00
  1.425000E+01  1.538455E-02  2.598099E-23  2.598223E-23  0.000000E+00
  1.450000E+01  1.592618E-02  2.424055E-23  2.423933E-23  0.000000E+00
  1.475000E+01  1.647703E-02  2.263839E-23  2.264015E-23  0.000000E+00
  1.500000E+01  1.703709E-02  2.117193E-23  2.117069E-23  0.000000E+00
  1.525000E+01  1.760634E-02  1.981663E-23  1.981853E-23  0.000000E+00
  1.550000E+01  1.818477E-02  1.857375E-23  1.857259E-23  0.000000E+00
  1.575000E+01  1.877238E-02  1.742128E-23  1.742304E-23  0.000000E+00
  1.600000E+01  1.936915E-02  1.636208E-23  1.636103E-23  0.000000E+00
  1.625000E+01  1.997507E-02  1.537728E-23  1.537871E-23  0.000000E+00
  1.650000E+01  2.059013E-02  1.446990E-23  1.446898E-23  0.000000E+00
  1.675000E+01  2.121432E-02  1.362453E-23  1.362551E-23  0.000000E+00
  1.700000E+01  2.184762E-02  1.284338E-23  1.284261E-23  0.000000E+00
  1.725000E+01  2.249003E-02  1.211456E-23  1.211508E-23  0.000000E+00
  1.750000E+01  2.314152E-02  1.143891E-23  1.143835E-23  0.000000E+00
