 #  Scattering amplitudes (in cm)      MU=(1-cos(TH))/2
 #  Z =   1,   projectile: electron
 #  Kinetic energy = 1.00000E+07 eV
 #
 # TH (deg)      MU          Re(F)        Im(F)        Re(G)        Im(G)
 #--------------------------------------------------------------------------
  0.000E+00  0.00000E+00  0.00000E+00  0.00000E+00  0.00000E+00  0.00000E+00
  1.000E-04  7.61557E-13  0.00000E+00  0.00000E+00  0.00000E+00  0.00000E+00
  1.250E-04  1.18994E-12  0.00000E+00  0.00000E+00  0.00000E+00  0.00000E+00
  1.500E-04  1.71346E-12  0.00000E+00  0.00000E+00  0.00000E+00  0.00000E+00
  1.750E-04  2.33225E-12  0.00000E+00  0.00000E+00  0.00000E+00  0.00000E+00
  2.000E-04  3.04617E-12  0.00000E+00  0.00000E+00  0.00000E+00  0.00000E+00
  2.250E-04  3.85530E-12  0.00000E+00  0.00000E+00  0.00000E+00  0.00000E+00
  2.500E-04  4.75964E-12  0.00000E+00  0.00000E+00  0.00000E+00  0.00000E+00
  2.750E-04  5.75917E-12  0.00000E+00  0.00000E+00  0.00000E+00  0.00000E+00
  3.000E-04  6.85391E-12  0.00000E+00  0.00000E+00  0.00000E+00  0.00000E+00
  3.250E-04  8.04379E-12  0.00000E+00  0.00000E+00  0.00000E+00  0.00000E+00
  3.500E-04  9.32893E-12  0.00000E+00  0.00000E+00  0.00000E+00  0.00000E+00
  3.750E-04  1.07092E-11  0.00000E+00  0.00000E+00  0.00000E+00  0.00000E+00
  4.000E-04  1.21847E-11  0.00000E+00  0.00000E+00  0.00000E+00  0.00000E+00
  4.250E-04  1.37554E-11  0.00000E+00  0.00000E+00  0.00000E+00  0.00000E+00
  4.500E-04  1.54213E-11  0.00000E+00  0.00000E+00  0.00000E+00  0.00000E+00
  4.750E-04  1.71823E-11  0.00000E+00  0.00000E+00  0.00000E+00  0.00000E+00
  5.000E-04  1.90386E-11  0.00000E+00  0.00000E+00  0.00000E+00  0.00000E+00
  5.250E-04  2.09900E-11  0.00000E+00  0.00000E+00  0.00000E+00  0.00000E+00
  5.500E-04  2.30367E-11  0.00000E+00  0.00000E+00  0.00000E+00  0.00000E+00
  5.750E-04  2.51785E-11  0.00000E+00  0.00000E+00  0.00000E+00  0.00000E+00
  6.000E-04  2.74156E-11  0.00000E+00  0.00000E+00  0.00000E+00  0.00000E+00
  6.250E-04  2.97478E-11  0.00000E+00  0.00000E+00  0.00000E+00  0.00000E+00
  6.500E-04  3.21752E-11  0.00000E+00  0.00000E+00  0.00000E+00  0.00000E+00
  6.750E-04  3.46979E-11  0.00000E+00  0.00000E+00  0.00000E+00  0.00000E+00
  7.000E-04  3.73157E-11  0.00000E+00  0.00000E+00  0.00000E+00  0.00000E+00
  7.250E-04  4.00286E-11  0.00000E+00  0.00000E+00  0.00000E+00  0.00000E+00
  7.500E-04  4.28368E-11  0.00000E+00  0.00000E+00  0.00000E+00  0.00000E+00
  7.750E-04  4.57402E-11  0.00000E+00  0.00000E+00  0.00000E+00  0.00000E+00
  8.000E-04  4.87388E-11  0.00000E+00  0.00000E+00  0.00000E+00  0.00000E+00
  8.250E-04  5.18325E-11  0.00000E+00  0.00000E+00  0.00000E+00  0.00000E+00
  8.500E-04  5.50215E-11  0.00000E+00  0.00000E+00  0.00000E+00  0.00000E+00
  8.750E-04  5.83057E-11  0.00000E+00  0.00000E+00  0.00000E+00  0.00000E+00
  9.000E-04  6.16850E-11  0.00000E+00  0.00000E+00  0.00000E+00  0.00000E+00
  9.250E-04  6.51595E-11  0.00000E+00  0.00000E+00  0.00000E+00  0.00000E+00
  9.500E-04  6.87293E-11  0.00000E+00  0.00000E+00  0.00000E+00  0.00000E+00
  9.750E-04  7.23943E-11  0.00000E+00  0.00000E+00  0.00000E+00  0.00000E+00
  1.000E-03  7.61544E-11  0.00000E+00  0.00000E+00  0.00000E+00  0.00000E+00
  1.250E-03  1.18991E-10  0.00000E+00  0.00000E+00  0.00000E+00  0.00000E+00
  1.500E-03  1.71347E-10  0.00000E+00  0.00000E+00  0.00000E+00  0.00000E+00
  1.750E-03  2.33223E-10  0.00000E+00  0.00000E+00  0.00000E+00  0.00000E+00
  2.000E-03  3.04617E-10  0.00000E+00  0.00000E+00  0.00000E+00  0.00000E+00
  2.250E-03  3.85531E-10  0.00000E+00  0.00000E+00  0.00000E+00  0.00000E+00
  2.500E-03  4.75965E-10  0.00000E+00  0.00000E+00  0.00000E+00  0.00000E+00
  2.750E-03  5.75917E-10  0.00000E+00  0.00000E+00  0.00000E+00  0.00000E+00
  3.000E-03  6.85389E-10  0.00000E+00  0.00000E+00  0.00000E+00  0.00000E+00
  3.250E-03  8.04380E-10  0.00000E+00  0.00000E+00  0.00000E+00  0.00000E+00
  3.500E-03  9.32891E-10  0.00000E+00  0.00000E+00  0.00000E+00  0.00000E+00
  3.750E-03  1.07092E-09  0.00000E+00  0.00000E+00  0.00000E+00  0.00000E+00
  4.000E-03  1.21847E-09  0.00000E+00  0.00000E+00  0.00000E+00  0.00000E+00
  4.250E-03  1.37554E-09  0.00000E+00  0.00000E+00  0.00000E+00  0.00000E+00
  4.500E-03  1.54213E-09  0.00000E+00  0.00000E+00  0.00000E+00  0.00000E+00
  4.750E-03  1.71823E-09  0.00000E+00  0.00000E+00  0.00000E+00  0.00000E+00
  5.000E-03  1.90386E-09  0.00000E+00  0.00000E+00  0.00000E+00  0.00000E+00
  5.250E-03  2.09900E-09  0.00000E+00  0.00000E+00  0.00000E+00  0.00000E+00
  5.500E-03  2.30367E-09  0.00000E+00  0.00000E+00  0.00000E+00  0.00000E+00
  5.750E-03  2.51785E-09  0.00000E+00  0.00000E+00  0.00000E+00  0.00000E+00
  6.000E-03  2.74156E-09  0.00000E+00  0.00000E+00  0.00000E+00  0.00000E+00
  6.250E-03  2.97478E-09  0.00000E+00  0.00000E+00  0.00000E+00  0.00000E+00
  6.500E-03  3.21752E-09  0.00000E+00  0.00000E+00  0.00000E+00  0.00000E+00
  6.750E-03  3.46978E-09  0.00000E+00  0.00000E+00  0.00000E+00  0.00000E+00
  7.000E-03  3.73156E-09  0.00000E+00  0.00000E+00  0.00000E+00  0.00000E+00
  7.250E-03  4.00286E-09  0.00000E+00  0.00000E+00  0.00000E+00  0.00000E+00
  7.500E-03  4.28368E-09  0.00000E+00  0.00000E+00  0.00000E+00  0.00000E+00
  7.750E-03  4.57402E-09  0.00000E+00  0.00000E+00  0.00000E+00  0.00000E+00
  8.000E-03  4.87388E-09  0.00000E+00  0.00000E+00  0.00000E+00  0.00000E+00
  8.250E-03  5.18326E-09  0.00000E+00  0.00000E+00  0.00000E+00  0.00000E+00
  8.500E-03  5.50215E-09  0.00000E+00  0.00000E+00  0.00000E+00  0.00000E+00
  8.750E-03  5.83057E-09  0.00000E+00  0.00000E+00  0.00000E+00  0.00000E+00
  9.000E-03  6.16850E-09  0.00000E+00  0.00000E+00  0.00000E+00  0.00000E+00
  9.250E-03  6.51596E-09  0.00000E+00  0.00000E+00  0.00000E+00  0.00000E+00
  9.500E-03  6.87293E-09  0.00000E+00  0.00000E+00  0.00000E+00  0.00000E+00
  9.750E-03  7.23942E-09  0.00000E+00  0.00000E+00  0.00000E+00  0.00000E+00
  1.000E-02  7.61544E-09  0.00000E+00  0.00000E+00  0.00000E+00  0.00000E+00
  1.250E-02  1.18991E-08  0.00000E+00  0.00000E+00  0.00000E+00  0.00000E+00
  1.500E-02  1.71347E-08  0.00000E+00  0.00000E+00  0.00000E+00  0.00000E+00
  1.750E-02  2.33223E-08  0.00000E+00  0.00000E+00  0.00000E+00  0.00000E+00
  2.000E-02  3.04617E-08  0.00000E+00  0.00000E+00  0.00000E+00  0.00000E+00
  2.250E-02  3.85531E-08  0.00000E+00  0.00000E+00  0.00000E+00  0.00000E+00
  2.500E-02  4.75965E-08  0.00000E+00  0.00000E+00  0.00000E+00  0.00000E+00
  2.750E-02  5.75917E-08  0.00000E+00  0.00000E+00  0.00000E+00  0.00000E+00
  3.000E-02  6.85389E-08  0.00000E+00  0.00000E+00  0.00000E+00  0.00000E+00
  3.250E-02  8.04380E-08  0.00000E+00  0.00000E+00  0.00000E+00  0.00000E+00
  3.500E-02  9.32891E-08  0.00000E+00  0.00000E+00  0.00000E+00  0.00000E+00
  3.750E-02  1.07092E-07  0.00000E+00  0.00000E+00  0.00000E+00  0.00000E+00
  4.000E-02  1.21847E-07  0.00000E+00  0.00000E+00  0.00000E+00  0.00000E+00
  4.250E-02  1.37554E-07  0.00000E+00  0.00000E+00  0.00000E+00  0.00000E+00
  4.500E-02  1.54213E-07  0.00000E+00  0.00000E+00  0.00000E+00  0.00000E+00
  4.750E-02  1.71823E-07  0.00000E+00  0.00000E+00  0.00000E+00  0.00000E+00
  5.000E-02  1.90386E-07  0.00000E+00  0.00000E+00  0.00000E+00  0.00000E+00
  5.250E-02  2.09900E-07  0.00000E+00  0.00000E+00  0.00000E+00  0.00000E+00
  5.500E-02  2.30367E-07  0.00000E+00  0.00000E+00  0.00000E+00  0.00000E+00
  5.750E-02  2.51785E-07  0.00000E+00  0.00000E+00  0.00000E+00  0.00000E+00
  6.000E-02  2.74156E-07  0.00000E+00  0.00000E+00  0.00000E+00  0.00000E+00
  6.250E-02  2.97478E-07  0.00000E+00  0.00000E+00  0.00000E+00  0.00000E+00
  6.500E-02  3.21752E-07  0.00000E+00  0.00000E+00  0.00000E+00  0.00000E+00
  6.750E-02  3.46978E-07  0.00000E+00  0.00000E+00  0.00000E+00  0.00000E+00
  7.000E-02  3.73156E-07  0.00000E+00  0.00000E+00  0.00000E+00  0.00000E+00
  7.250E-02  4.00286E-07  0.00000E+00  0.00000E+00  0.00000E+00  0.00000E+00
  7.500E-02  4.28368E-07  0.00000E+00  0.00000E+00  0.00000E+00  0.00000E+00
  7.750E-02  4.57402E-07  0.00000E+00  0.00000E+00  0.00000E+00  0.00000E+00
  8.000E-02  4.87388E-07  0.00000E+00  0.00000E+00  0.00000E+00  0.00000E+00
  8.250E-02  5.18325E-07  0.00000E+00  0.00000E+00  0.00000E+00  0.00000E+00
  8.500E-02  5.50215E-07  0.00000E+00  0.00000E+00  0.00000E+00  0.00000E+00
  8.750E-02  5.83057E-07  0.00000E+00  0.00000E+00  0.00000E+00  0.00000E+00
  9.000E-02  6.16850E-07  0.00000E+00  0.00000E+00  0.00000E+00  0.00000E+00
  9.250E-02  6.51596E-07  0.00000E+00  0.00000E+00  0.00000E+00  0.00000E+00
  9.500E-02  6.87293E-07  0.00000E+00  0.00000E+00  0.00000E+00  0.00000E+00
  9.750E-02  7.23942E-07  0.00000E+00  0.00000E+00  0.00000E+00  0.00000E+00
  1.000E-01  7.61543E-07  0.00000E+00  0.00000E+00  0.00000E+00  0.00000E+00
  1.250E-01  1.18991E-06  0.00000E+00  0.00000E+00  0.00000E+00  0.00000E+00
  1.500E-01  1.71347E-06  0.00000E+00  0.00000E+00  0.00000E+00  0.00000E+00
  1.750E-01  2.33223E-06  0.00000E+00  0.00000E+00  0.00000E+00  0.00000E+00
  2.000E-01  3.04617E-06  0.00000E+00  0.00000E+00  0.00000E+00  0.00000E+00
  2.250E-01  3.85531E-06  0.00000E+00  0.00000E+00  0.00000E+00  0.00000E+00
  2.500E-01  4.75964E-06  0.00000E+00  0.00000E+00  0.00000E+00  0.00000E+00
  2.750E-01  5.75916E-06  0.00000E+00  0.00000E+00  0.00000E+00  0.00000E+00
  3.000E-01  6.85388E-06  0.00000E+00  0.00000E+00  0.00000E+00  0.00000E+00
  3.250E-01  8.04378E-06  0.00000E+00  0.00000E+00  0.00000E+00  0.00000E+00
  3.500E-01  9.32888E-06  0.00000E+00  0.00000E+00  0.00000E+00  0.00000E+00
  3.750E-01  1.07092E-05  0.00000E+00  0.00000E+00  0.00000E+00  0.00000E+00
  4.000E-01  1.21846E-05  0.00000E+00  0.00000E+00  0.00000E+00  0.00000E+00
  4.250E-01  1.37553E-05  0.00000E+00  0.00000E+00  0.00000E+00  0.00000E+00
  4.500E-01  1.54212E-05  0.00000E+00  0.00000E+00  0.00000E+00  0.00000E+00
  4.750E-01  1.71822E-05  0.00000E+00  0.00000E+00  0.00000E+00  0.00000E+00
  5.000E-01  1.90385E-05  0.00000E+00  0.00000E+00  0.00000E+00  0.00000E+00
  5.250E-01  2.09899E-05  0.00000E+00  0.00000E+00  0.00000E+00  0.00000E+00
  5.500E-01  2.30365E-05  0.00000E+00  0.00000E+00  0.00000E+00  0.00000E+00
  5.750E-01  2.51783E-05  0.00000E+00  0.00000E+00  0.00000E+00  0.00000E+00
  6.000E-01  2.74153E-05  0.00000E+00  0.00000E+00  0.00000E+00  0.00000E+00
  6.250E-01  2.97475E-05  0.00000E+00  0.00000E+00  0.00000E+00  0.00000E+00
  6.500E-01  3.21749E-05  0.00000E+00  0.00000E+00  0.00000E+00  0.00000E+00
  6.750E-01  3.46974E-05  0.00000E+00  0.00000E+00  0.00000E+00  0.00000E+00
  7.000E-01  3.73152E-05  0.00000E+00  0.00000E+00  0.00000E+00  0.00000E+00
  7.250E-01  4.00281E-05  0.00000E+00  0.00000E+00  0.00000E+00  0.00000E+00
  7.500E-01  4.28362E-05  0.00000E+00  0.00000E+00  0.00000E+00  0.00000E+00
  7.750E-01  4.57395E-05  0.00000E+00  0.00000E+00  0.00000E+00  0.00000E+00
  8.000E-01  4.87380E-05  0.00000E+00  0.00000E+00  0.00000E+00  0.00000E+00
  8.250E-01  5.18317E-05  0.00000E+00  0.00000E+00  0.00000E+00  0.00000E+00
  8.500E-01  5.50205E-05  0.00000E+00  0.00000E+00  0.00000E+00  0.00000E+00
  8.750E-01  5.83045E-05  0.00000E+00  0.00000E+00  0.00000E+00  0.00000E+00
  9.000E-01  6.16838E-05  0.00000E+00  0.00000E+00  0.00000E+00  0.00000E+00
  9.250E-01  6.51582E-05  0.00000E+00  0.00000E+00  0.00000E+00  0.00000E+00
  9.500E-01  6.87277E-05  0.00000E+00  0.00000E+00  0.00000E+00  0.00000E+00
  9.750E-01  7.23925E-05  0.00000E+00  0.00000E+00  0.00000E+00  0.00000E+00
  1.000E+00  7.61524E-05  0.00000E+00  0.00000E+00  0.00000E+00  0.00000E+00
  1.100E+00  9.21439E-05  0.00000E+00  0.00000E+00  0.00000E+00  0.00000E+00
  1.200E+00  1.09658E-04  0.00000E+00  0.00000E+00  0.00000E+00  0.00000E+00
  1.300E+00  1.28695E-04  0.00000E+00  0.00000E+00  0.00000E+00  0.00000E+00
  1.400E+00  1.49255E-04  0.00000E+00  0.00000E+00  0.00000E+00  0.00000E+00
  1.500E+00  1.71338E-04  0.00000E+00  0.00000E+00  0.00000E+00  0.00000E+00
  1.600E+00  1.94942E-04  0.00000E+00  0.00000E+00  0.00000E+00  0.00000E+00
  1.700E+00  2.20070E-04  0.00000E+00  0.00000E+00  0.00000E+00  0.00000E+00
  1.800E+00  2.46720E-04  0.00000E+00  0.00000E+00  0.00000E+00  0.00000E+00
  1.900E+00  2.74892E-04  0.00000E+00  0.00000E+00  0.00000E+00  0.00000E+00
  2.000E+00  3.04586E-04  0.00000E+00  0.00000E+00  0.00000E+00  0.00000E+00
  2.100E+00  3.35803E-04  0.00000E+00  0.00000E+00  0.00000E+00  0.00000E+00
  2.200E+00  3.68542E-04  0.00000E+00  0.00000E+00  0.00000E+00  0.00000E+00
  2.300E+00  4.02802E-04  0.00000E+00  0.00000E+00  0.00000E+00  0.00000E+00
  2.400E+00  4.38585E-04  0.00000E+00  0.00000E+00  0.00000E+00  0.00000E+00
  2.500E+00  4.75889E-04  0.00000E+00  0.00000E+00  0.00000E+00  0.00000E+00
  2.600E+00  5.14715E-04  0.00000E+00  0.00000E+00  0.00000E+00  0.00000E+00
  2.700E+00  5.55063E-04  0.00000E+00  0.00000E+00  0.00000E+00  0.00000E+00
  2.800E+00  5.96931E-04  0.00000E+00  0.00000E+00  0.00000E+00  0.00000E+00
  2.900E+00  6.40321E-04  0.00000E+00  0.00000E+00  0.00000E+00  0.00000E+00
  3.000E+00  6.85233E-04  0.00000E+00  0.00000E+00  0.00000E+00  0.00000E+00
  3.100E+00  7.31665E-04  0.00000E+00  0.00000E+00  0.00000E+00  0.00000E+00
  3.200E+00  7.79618E-04  0.00000E+00  0.00000E+00  0.00000E+00  0.00000E+00
  3.300E+00  8.29092E-04  0.00000E+00  0.00000E+00  0.00000E+00  0.00000E+00
  3.400E+00  8.80086E-04  0.00000E+00  0.00000E+00  0.00000E+00  0.00000E+00
  3.500E+00  9.32601E-04  0.00000E+00  0.00000E+00  0.00000E+00  0.00000E+00
  3.600E+00  9.86636E-04  0.00000E+00  0.00000E+00  0.00000E+00  0.00000E+00
  3.700E+00  1.04219E-03  0.00000E+00  0.00000E+00  0.00000E+00  0.00000E+00
  3.800E+00  1.09927E-03  0.00000E+00  0.00000E+00  0.00000E+00  0.00000E+00
  3.900E+00  1.15786E-03  0.00000E+00  0.00000E+00  0.00000E+00  0.00000E+00
  4.000E+00  1.21797E-03  0.00000E+00  0.00000E+00  0.00000E+00  0.00000E+00
  4.100E+00  1.27961E-03  0.00000E+00  0.00000E+00  0.00000E+00  0.00000E+00
  4.200E+00  1.34276E-03  0.00000E+00  0.00000E+00  0.00000E+00  0.00000E+00
  4.300E+00  1.40743E-03  0.00000E+00  0.00000E+00  0.00000E+00  0.00000E+00
  4.400E+00  1.47362E-03  0.00000E+00  0.00000E+00  0.00000E+00  0.00000E+00
  4.500E+00  1.54133E-03  0.00000E+00  0.00000E+00  0.00000E+00  0.00000E+00
  4.600E+00  1.61056E-03  0.00000E+00  0.00000E+00  0.00000E+00  0.00000E+00
  4.700E+00  1.68131E-03  0.00000E+00  0.00000E+00  0.00000E+00  0.00000E+00
  4.800E+00  1.75357E-03  0.00000E+00  0.00000E+00  0.00000E+00  0.00000E+00
  4.900E+00  1.82735E-03  0.00000E+00  0.00000E+00  0.00000E+00  0.00000E+00
  5.000E+00  1.90265E-03  0.00000E+00  0.00000E+00  0.00000E+00  0.00000E+00
  5.100E+00  1.97947E-03  0.00000E+00  0.00000E+00  0.00000E+00  0.00000E+00
  5.200E+00  2.05780E-03  0.00000E+00  0.00000E+00  0.00000E+00  0.00000E+00
  5.300E+00  2.13765E-03  0.00000E+00  0.00000E+00  0.00000E+00  0.00000E+00
  5.400E+00  2.21902E-03  0.00000E+00  0.00000E+00  0.00000E+00  0.00000E+00
  5.500E+00  2.30190E-03  0.00000E+00  0.00000E+00  0.00000E+00  0.00000E+00
  5.600E+00  2.38630E-03  0.00000E+00  0.00000E+00  0.00000E+00  0.00000E+00
  5.700E+00  2.47222E-03  0.00000E+00  0.00000E+00  0.00000E+00  0.00000E+00
  5.800E+00  2.55965E-03  0.00000E+00  0.00000E+00  0.00000E+00  0.00000E+00
  5.900E+00  2.64859E-03  0.00000E+00  0.00000E+00  0.00000E+00  0.00000E+00
  6.000E+00  2.73905E-03  0.00000E+00  0.00000E+00  0.00000E+00  0.00000E+00
  6.100E+00  2.83103E-03  0.00000E+00  0.00000E+00  0.00000E+00  0.00000E+00
  6.200E+00  2.92452E-03  0.00000E+00  0.00000E+00  0.00000E+00  0.00000E+00
  6.300E+00  3.01952E-03  0.00000E+00  0.00000E+00  0.00000E+00  0.00000E+00
  6.400E+00  3.11604E-03  0.00000E+00  0.00000E+00  0.00000E+00  0.00000E+00
  6.500E+00  3.21407E-03  0.00000E+00  0.00000E+00  0.00000E+00  0.00000E+00
  6.600E+00  3.31362E-03  0.00000E+00  0.00000E+00  0.00000E+00  0.00000E+00
  6.700E+00  3.41468E-03  0.00000E+00  0.00000E+00  0.00000E+00  0.00000E+00
  6.800E+00  3.51725E-03  0.00000E+00  0.00000E+00  0.00000E+00  0.00000E+00
  6.900E+00  3.62133E-03  0.00000E+00  0.00000E+00  0.00000E+00  0.00000E+00
  7.000E+00  3.72692E-03  0.00000E+00  0.00000E+00  0.00000E+00  0.00000E+00
  7.100E+00  3.83403E-03  0.00000E+00  0.00000E+00  0.00000E+00  0.00000E+00
  7.200E+00  3.94265E-03  0.00000E+00  0.00000E+00  0.00000E+00  0.00000E+00
  7.300E+00  4.05278E-03  0.00000E+00  0.00000E+00  0.00000E+00  0.00000E+00
  7.400E+00  4.16442E-03  0.00000E+00  0.00000E+00  0.00000E+00  0.00000E+00
  7.500E+00  4.27757E-03  0.00000E+00  0.00000E+00  0.00000E+00  0.00000E+00
  7.600E+00  4.39223E-03  0.00000E+00  0.00000E+00  0.00000E+00  0.00000E+00
  7.700E+00  4.50840E-03  0.00000E+00  0.00000E+00  0.00000E+00  0.00000E+00
  7.800E+00  4.62608E-03  0.00000E+00  0.00000E+00  0.00000E+00  0.00000E+00
  7.900E+00  4.74527E-03  0.00000E+00  0.00000E+00  0.00000E+00  0.00000E+00
  8.000E+00  4.86597E-03  0.00000E+00  0.00000E+00  0.00000E+00  0.00000E+00
  8.100E+00  4.98817E-03  0.00000E+00  0.00000E+00  0.00000E+00  0.00000E+00
  8.200E+00  5.11188E-03  0.00000E+00  0.00000E+00  0.00000E+00  0.00000E+00
  8.300E+00  5.23711E-03  0.00000E+00  0.00000E+00  0.00000E+00  0.00000E+00
  8.400E+00  5.36383E-03  0.00000E+00  0.00000E+00  0.00000E+00  0.00000E+00
  8.500E+00  5.49207E-03  0.00000E+00  0.00000E+00  0.00000E+00  0.00000E+00
  8.600E+00  5.62181E-03  0.00000E+00  0.00000E+00  0.00000E+00  0.00000E+00
  8.700E+00  5.75306E-03  0.00000E+00  0.00000E+00  0.00000E+00  0.00000E+00
  8.800E+00  5.88581E-03  0.00000E+00  0.00000E+00  0.00000E+00  0.00000E+00
  8.900E+00  6.02007E-03  0.00000E+00  0.00000E+00  0.00000E+00  0.00000E+00
  9.000E+00  6.15583E-03  0.00000E+00  0.00000E+00  0.00000E+00  0.00000E+00
  9.100E+00  6.29310E-03  0.00000E+00  0.00000E+00  0.00000E+00  0.00000E+00
  9.200E+00  6.43187E-03  0.00000E+00  0.00000E+00  0.00000E+00  0.00000E+00
  9.300E+00  6.57214E-03  0.00000E+00  0.00000E+00  0.00000E+00  0.00000E+00
  9.400E+00  6.71392E-03  0.00000E+00  0.00000E+00  0.00000E+00  0.00000E+00
  9.500E+00  6.85720E-03  0.00000E+00  0.00000E+00  0.00000E+00  0.00000E+00
  9.600E+00  7.00198E-03  0.00000E+00  0.00000E+00  0.00000E+00  0.00000E+00
  9.700E+00  7.14827E-03  0.00000E+00  0.00000E+00  0.00000E+00  0.00000E+00
  9.800E+00  7.29605E-03  0.00000E+00  0.00000E+00  0.00000E+00  0.00000E+00
  9.900E+00  7.44534E-03  0.00000E+00  0.00000E+00  0.00000E+00  0.00000E+00
  1.000E+01  7.59612E-03  0.00000E+00  0.00000E+00  0.00000E+00  0.00000E+00
  1.025E+01  7.97965E-03  0.00000E+00  0.00000E+00  0.00000E+00  0.00000E+00
  1.050E+01  8.37255E-03  0.00000E+00  0.00000E+00  0.00000E+00  0.00000E+00
  1.075E+01  8.77480E-03  0.00000E+00  0.00000E+00  0.00000E+00  0.00000E+00
  1.100E+01  9.18641E-03  0.00000E+00  0.00000E+00  0.00000E+00  0.00000E+00
  1.125E+01  9.60736E-03  0.00000E+00  0.00000E+00  0.00000E+00  0.00000E+00
  1.150E+01  1.00376E-02  0.00000E+00  0.00000E+00  0.00000E+00  0.00000E+00
  1.175E+01  1.04773E-02  0.00000E+00  0.00000E+00  0.00000E+00  0.00000E+00
  1.200E+01  1.09262E-02  0.00000E+00  0.00000E+00  0.00000E+00  0.00000E+00
  1.225E+01  1.13844E-02  0.00000E+00  0.00000E+00  0.00000E+00  0.00000E+00
  1.250E+01  1.18520E-02  0.00000E+00  0.00000E+00  0.00000E+00  0.00000E+00
  1.275E+01  1.23288E-02  0.00000E+00  0.00000E+00  0.00000E+00  0.00000E+00
  1.300E+01  1.28150E-02  0.00000E+00  0.00000E+00  0.00000E+00  0.00000E+00
  1.325E+01  1.33104E-02  0.00000E+00  0.00000E+00  0.00000E+00  0.00000E+00
  1.350E+01  1.38150E-02  0.00000E+00  0.00000E+00  0.00000E+00  0.00000E+00
  1.375E+01  1.43290E-02  0.00000E+00  0.00000E+00  0.00000E+00  0.00000E+00
  1.400E+01  1.48521E-02  0.00000E+00  0.00000E+00  0.00000E+00  0.00000E+00
  1.425E+01  1.53845E-02  0.00000E+00  0.00000E+00  0.00000E+00  0.00000E+00
  1.450E+01  1.59262E-02  0.00000E+00  0.00000E+00  0.00000E+00  0.00000E+00
  1.475E+01  1.64770E-02  0.00000E+00  0.00000E+00  0.00000E+00  0.00000E+00
  1.500E+01  1.70371E-02  0.00000E+00  0.00000E+00  0.00000E+00  0.00000E+00
