 #  Scattering field.
 #  All quantities in atomic units (a.u.), unless otherwise indicated.
 #  Z =   1, NELEC =   1,   projectile: electron
 #  Kinetic energy = 3.67493E+05 a.u. = 1.00000E+07 eV
 #
 #   i       r           r*V         r*Vst        r*Vex       r*Vpol       r*Wabs        rho_e
 #------------------------------------------------------------------------------------------------
     1  0.00000E+00 -0.00000E+00 -0.00000E+00  0.00000E+00  0.00000E+00  0.00000E+00  3.18821E-01
     2  2.05069E-07 -7.37585E-03 -7.37585E-03 -5.13587E-14  0.00000E+00  0.00000E+00  3.18821E-01
     3  4.14884E-07 -1.49216E-02 -1.49216E-02 -1.03897E-13  0.00000E+00  0.00000E+00  3.18793E-01
     4  6.29556E-07 -2.26405E-02 -2.26405E-02 -1.57642E-13  0.00000E+00  0.00000E+00  3.18765E-01
     5  8.49196E-07 -3.05353E-02 -3.05353E-02 -2.12623E-13  0.00000E+00  0.00000E+00  3.18738E-01
     6  1.07392E-06 -3.86093E-02 -3.86093E-02 -2.68869E-13  0.00000E+00  0.00000E+00  3.18713E-01
     7  1.30385E-06 -4.68655E-02 -4.68655E-02 -3.26409E-13  0.00000E+00  0.00000E+00  3.18689E-01
     8  1.53909E-06 -5.53066E-02 -5.53066E-02 -3.85275E-13  0.00000E+00  0.00000E+00  3.18666E-01
     9  1.77978E-06 -6.39356E-02 -6.39356E-02 -4.45498E-13  0.00000E+00  0.00000E+00  3.18645E-01
    10  2.02605E-06 -7.27554E-02 -7.27554E-02 -5.07110E-13  0.00000E+00  0.00000E+00  3.18625E-01
    11  2.27801E-06 -8.17687E-02 -8.17687E-02 -5.70144E-13  0.00000E+00  0.00000E+00  3.18606E-01
    12  2.53580E-06 -9.09780E-02 -9.09780E-02 -6.34633E-13  0.00000E+00  0.00000E+00  3.18589E-01
    13  2.79956E-06 -1.00386E-01 -1.00386E-01 -7.00613E-13  0.00000E+00  0.00000E+00  3.18573E-01
    14  3.06943E-06 -1.09995E-01 -1.09995E-01 -7.68119E-13  0.00000E+00  0.00000E+00  3.18559E-01
    15  3.34554E-06 -1.19807E-01 -1.19807E-01 -8.37188E-13  0.00000E+00  0.00000E+00  3.18546E-01
    16  3.62804E-06 -1.29825E-01 -1.29825E-01 -9.07855E-13  0.00000E+00  0.00000E+00  3.18535E-01
    17  3.91709E-06 -1.40050E-01 -1.40050E-01 -9.80160E-13  0.00000E+00  0.00000E+00  3.18525E-01
    18  4.21282E-06 -1.50484E-01 -1.50484E-01 -1.05414E-12  0.00000E+00  0.00000E+00  3.18517E-01
    19  4.51539E-06 -1.61128E-01 -1.61128E-01 -1.12984E-12  0.00000E+00  0.00000E+00  3.18510E-01
    20  4.82497E-06 -1.71984E-01 -1.71984E-01 -1.20729E-12  0.00000E+00  0.00000E+00  3.18504E-01
    21  5.14172E-06 -1.83054E-01 -1.83054E-01 -1.28654E-12  0.00000E+00  0.00000E+00  3.18499E-01
    22  5.46579E-06 -1.94336E-01 -1.94336E-01 -1.36763E-12  0.00000E+00  0.00000E+00  3.18496E-01
    23  5.79737E-06 -2.05833E-01 -2.05833E-01 -1.45060E-12  0.00000E+00  0.00000E+00  3.18493E-01
    24  6.13662E-06 -2.17544E-01 -2.17544E-01 -1.53550E-12  0.00000E+00  0.00000E+00  3.18492E-01
    25  6.48372E-06 -2.29468E-01 -2.29468E-01 -1.62237E-12  0.00000E+00  0.00000E+00  3.18491E-01
    26  6.83886E-06 -2.41606E-01 -2.41606E-01 -1.71126E-12  0.00000E+00  0.00000E+00  3.18490E-01
    27  7.20222E-06 -2.53956E-01 -2.53956E-01 -1.80221E-12  0.00000E+00  0.00000E+00  3.18490E-01
    28  7.57398E-06 -2.66516E-01 -2.66516E-01 -1.89527E-12  0.00000E+00  0.00000E+00  3.18490E-01
    29  7.95435E-06 -2.79284E-01 -2.79284E-01 -1.99049E-12  0.00000E+00  0.00000E+00  3.18490E-01
    30  8.34353E-06 -2.92258E-01 -2.92258E-01 -2.08792E-12  0.00000E+00  0.00000E+00  3.18489E-01
    31  8.74171E-06 -3.05435E-01 -3.05435E-01 -2.18761E-12  0.00000E+00  0.00000E+00  3.18489E-01
    32  9.14911E-06 -3.18810E-01 -3.18810E-01 -2.28961E-12  0.00000E+00  0.00000E+00  3.18489E-01
    33  9.56594E-06 -3.32380E-01 -3.32380E-01 -2.39398E-12  0.00000E+00  0.00000E+00  3.18489E-01
    34  9.99241E-06 -3.46139E-01 -3.46139E-01 -2.50078E-12  0.00000E+00  0.00000E+00  3.18488E-01
    35  1.04288E-05 -3.60082E-01 -3.60082E-01 -2.61005E-12  0.00000E+00  0.00000E+00  3.18488E-01
    36  1.08752E-05 -3.74201E-01 -3.74201E-01 -2.72186E-12  0.00000E+00  0.00000E+00  3.18488E-01
    37  1.13320E-05 -3.88490E-01 -3.88490E-01 -2.83627E-12  0.00000E+00  0.00000E+00  3.18487E-01
    38  1.17993E-05 -4.02941E-01 -4.02941E-01 -2.95334E-12  0.00000E+00  0.00000E+00  3.18487E-01
    39  1.22775E-05 -4.17544E-01 -4.17544E-01 -3.07313E-12  0.00000E+00  0.00000E+00  3.18487E-01
    40  1.27667E-05 -4.32290E-01 -4.32290E-01 -3.19570E-12  0.00000E+00  0.00000E+00  3.18486E-01
    41  1.32673E-05 -4.47167E-01 -4.47167E-01 -3.32112E-12  0.00000E+00  0.00000E+00  3.18486E-01
    42  1.37794E-05 -4.62165E-01 -4.62165E-01 -3.44946E-12  0.00000E+00  0.00000E+00  3.18485E-01
    43  1.43034E-05 -4.77270E-01 -4.77270E-01 -3.58079E-12  0.00000E+00  0.00000E+00  3.18485E-01
    44  1.48396E-05 -4.92469E-01 -4.92469E-01 -3.71517E-12  0.00000E+00  0.00000E+00  3.18484E-01
    45  1.53881E-05 -5.07747E-01 -5.07747E-01 -3.85267E-12  0.00000E+00  0.00000E+00  3.18484E-01
    46  1.59493E-05 -5.23089E-01 -5.23089E-01 -3.99338E-12  0.00000E+00  0.00000E+00  3.18483E-01
    47  1.65236E-05 -5.38477E-01 -5.38477E-01 -4.13736E-12  0.00000E+00  0.00000E+00  3.18483E-01
    48  1.71111E-05 -5.53895E-01 -5.53895E-01 -4.28469E-12  0.00000E+00  0.00000E+00  3.18482E-01
    49  1.77122E-05 -5.69324E-01 -5.69324E-01 -4.43546E-12  0.00000E+00  0.00000E+00  3.18481E-01
    50  1.83272E-05 -5.84745E-01 -5.84745E-01 -4.58973E-12  0.00000E+00  0.00000E+00  3.18481E-01
    51  1.89565E-05 -6.00137E-01 -6.00137E-01 -4.74760E-12  0.00000E+00  0.00000E+00  3.18480E-01
    52  1.96003E-05 -6.15480E-01 -6.15480E-01 -4.90915E-12  0.00000E+00  0.00000E+00  3.18479E-01
    53  2.02590E-05 -6.30751E-01 -6.30751E-01 -5.07447E-12  0.00000E+00  0.00000E+00  3.18479E-01
    54  2.09330E-05 -6.45929E-01 -6.45929E-01 -5.24364E-12  0.00000E+00  0.00000E+00  3.18478E-01
    55  2.16225E-05 -6.60990E-01 -6.60990E-01 -5.41675E-12  0.00000E+00  0.00000E+00  3.18477E-01
    56  2.23281E-05 -6.75912E-01 -6.75912E-01 -5.59390E-12  0.00000E+00  0.00000E+00  3.18476E-01
    57  2.30499E-05 -6.90670E-01 -6.90670E-01 -5.77518E-12  0.00000E+00  0.00000E+00  3.18476E-01
    58  2.37885E-05 -7.05241E-01 -7.05241E-01 -5.96068E-12  0.00000E+00  0.00000E+00  3.18475E-01
    59  2.45442E-05 -7.19601E-01 -7.19601E-01 -6.15052E-12  0.00000E+00  0.00000E+00  3.18474E-01
    60  2.53173E-05 -7.33726E-01 -7.33726E-01 -6.34478E-12  0.00000E+00  0.00000E+00  3.18473E-01
    61  2.61084E-05 -7.47594E-01 -7.47594E-01 -6.54358E-12  0.00000E+00  0.00000E+00  3.18472E-01
    62  2.69177E-05 -7.61181E-01 -7.61181E-01 -6.74701E-12  0.00000E+00  0.00000E+00  3.18472E-01
    63  2.77458E-05 -7.74466E-01 -7.74466E-01 -6.95519E-12  0.00000E+00  0.00000E+00  3.18471E-01
    64  2.85931E-05 -7.87427E-01 -7.87427E-01 -7.16823E-12  0.00000E+00  0.00000E+00  3.18470E-01
    65  2.94599E-05 -8.00043E-01 -8.00043E-01 -7.38623E-12  0.00000E+00  0.00000E+00  3.18469E-01
    66  3.03468E-05 -8.12298E-01 -8.12298E-01 -7.60933E-12  0.00000E+00  0.00000E+00  3.18468E-01
    67  3.12543E-05 -8.24172E-01 -8.24172E-01 -7.83762E-12  0.00000E+00  0.00000E+00  3.18467E-01
    68  3.21828E-05 -8.35650E-01 -8.35650E-01 -8.07124E-12  0.00000E+00  0.00000E+00  3.18466E-01
    69  3.31327E-05 -8.46717E-01 -8.46717E-01 -8.31032E-12  0.00000E+00  0.00000E+00  3.18465E-01
    70  3.41046E-05 -8.57363E-01 -8.57363E-01 -8.55496E-12  0.00000E+00  0.00000E+00  3.18464E-01
    71  3.50991E-05 -8.67576E-01 -8.67576E-01 -8.80531E-12  0.00000E+00  0.00000E+00  3.18463E-01
    72  3.61165E-05 -8.77347E-01 -8.77347E-01 -9.06149E-12  0.00000E+00  0.00000E+00  3.18462E-01
    73  3.71575E-05 -8.86672E-01 -8.86672E-01 -9.32365E-12  0.00000E+00  0.00000E+00  3.18461E-01
    74  3.82226E-05 -8.95545E-01 -8.95545E-01 -9.59191E-12  0.00000E+00  0.00000E+00  3.18460E-01
    75  3.93124E-05 -9.03966E-01 -9.03966E-01 -9.86643E-12  0.00000E+00  0.00000E+00  3.18459E-01
    76  4.04273E-05 -9.11935E-01 -9.11935E-01 -1.01473E-11  0.00000E+00  0.00000E+00  3.18458E-01
    77  4.15681E-05 -9.19453E-01 -9.19453E-01 -1.04348E-11  0.00000E+00  0.00000E+00  3.18456E-01
    78  4.27353E-05 -9.26526E-01 -9.26526E-01 -1.07289E-11  0.00000E+00  0.00000E+00  3.18455E-01
    79  4.39294E-05 -9.33161E-01 -9.33161E-01 -1.10299E-11  0.00000E+00  0.00000E+00  3.18454E-01
    80  4.51513E-05 -9.39364E-01 -9.39364E-01 -1.13379E-11  0.00000E+00  0.00000E+00  3.18453E-01
    81  4.64014E-05 -9.45148E-01 -9.45148E-01 -1.16530E-11  0.00000E+00  0.00000E+00  3.18452E-01
    82  4.76804E-05 -9.50522E-01 -9.50522E-01 -1.19755E-11  0.00000E+00  0.00000E+00  3.18451E-01
    83  4.89891E-05 -9.55501E-01 -9.55501E-01 -1.23055E-11  0.00000E+00  0.00000E+00  3.18449E-01
    84  5.03280E-05 -9.60098E-01 -9.60098E-01 -1.26431E-11  0.00000E+00  0.00000E+00  3.18448E-01
    85  5.16979E-05 -9.64330E-01 -9.64330E-01 -1.29886E-11  0.00000E+00  0.00000E+00  3.18447E-01
    86  5.30996E-05 -9.68211E-01 -9.68211E-01 -1.33421E-11  0.00000E+00  0.00000E+00  3.18445E-01
    87  5.45336E-05 -9.71759E-01 -9.71759E-01 -1.37038E-11  0.00000E+00  0.00000E+00  3.18444E-01
    88  5.60009E-05 -9.74992E-01 -9.74992E-01 -1.40739E-11  0.00000E+00  0.00000E+00  3.18443E-01
    89  5.75021E-05 -9.77927E-01 -9.77927E-01 -1.44525E-11  0.00000E+00  0.00000E+00  3.18441E-01
    90  5.90381E-05 -9.80583E-01 -9.80583E-01 -1.48400E-11  0.00000E+00  0.00000E+00  3.18440E-01
    91  6.06096E-05 -9.82976E-01 -9.82976E-01 -1.52365E-11  0.00000E+00  0.00000E+00  3.18439E-01
    92  6.22175E-05 -9.85126E-01 -9.85126E-01 -1.56421E-11  0.00000E+00  0.00000E+00  3.18437E-01
    93  6.38626E-05 -9.87050E-01 -9.87050E-01 -1.60571E-11  0.00000E+00  0.00000E+00  3.18436E-01
    94  6.55458E-05 -9.88764E-01 -9.88764E-01 -1.64818E-11  0.00000E+00  0.00000E+00  3.18434E-01
    95  6.72679E-05 -9.90287E-01 -9.90287E-01 -1.69163E-11  0.00000E+00  0.00000E+00  3.18433E-01
    96  6.90299E-05 -9.91633E-01 -9.91633E-01 -1.73609E-11  0.00000E+00  0.00000E+00  3.18431E-01
    97  7.08327E-05 -9.92820E-01 -9.92820E-01 -1.78158E-11  0.00000E+00  0.00000E+00  3.18430E-01
    98  7.26772E-05 -9.93860E-01 -9.93860E-01 -1.82812E-11  0.00000E+00  0.00000E+00  3.18428E-01
    99  7.45644E-05 -9.94769E-01 -9.94769E-01 -1.87574E-11  0.00000E+00  0.00000E+00  3.18427E-01
   100  7.64953E-05 -9.95559E-01 -9.95559E-01 -1.92446E-11  0.00000E+00  0.00000E+00  3.18425E-01
   101  7.84709E-05 -9.96244E-01 -9.96244E-01 -1.97431E-11  0.00000E+00  0.00000E+00  3.18423E-01
   102  8.04922E-05 -9.96834E-01 -9.96834E-01 -2.02531E-11  0.00000E+00  0.00000E+00  3.18422E-01
   103  8.25602E-05 -9.97341E-01 -9.97341E-01 -2.07749E-11  0.00000E+00  0.00000E+00  3.18420E-01
   104  8.46762E-05 -9.97773E-01 -9.97773E-01 -2.13088E-11  0.00000E+00  0.00000E+00  3.18418E-01
   105  8.68411E-05 -9.98140E-01 -9.98140E-01 -2.18551E-11  0.00000E+00  0.00000E+00  3.18416E-01
   106  8.90561E-05 -9.98451E-01 -9.98451E-01 -2.24140E-11  0.00000E+00  0.00000E+00  3.18414E-01
   107  9.13224E-05 -9.98712E-01 -9.98712E-01 -2.29859E-11  0.00000E+00  0.00000E+00  3.18413E-01
   108  9.36412E-05 -9.98931E-01 -9.98931E-01 -2.35710E-11  0.00000E+00  0.00000E+00  3.18411E-01
   109  9.60136E-05 -9.99113E-01 -9.99113E-01 -2.41696E-11  0.00000E+00  0.00000E+00  3.18409E-01
   110  9.84409E-05 -9.99263E-01 -9.99263E-01 -2.47821E-11  0.00000E+00  0.00000E+00  3.18407E-01
   111  1.00924E-04 -9.99387E-01 -9.99387E-01 -2.54087E-11  0.00000E+00  0.00000E+00  3.18405E-01
   112  1.03465E-04 -9.99488E-01 -9.99488E-01 -2.60498E-11  0.00000E+00  0.00000E+00  3.18403E-01
   113  1.06065E-04 -9.99570E-01 -9.99570E-01 -2.67058E-11  0.00000E+00  0.00000E+00  3.18401E-01
   114  1.08725E-04 -9.99635E-01 -9.99635E-01 -2.73770E-11  0.00000E+00  0.00000E+00  3.18399E-01
   115  1.11447E-04 -9.99688E-01 -9.99688E-01 -2.80636E-11  0.00000E+00  0.00000E+00  3.18397E-01
   116  1.14231E-04 -9.99729E-01 -9.99729E-01 -2.87662E-11  0.00000E+00  0.00000E+00  3.18394E-01
   117  1.17080E-04 -9.99762E-01 -9.99762E-01 -2.94850E-11  0.00000E+00  0.00000E+00  3.18392E-01
   118  1.19995E-04 -9.99787E-01 -9.99787E-01 -3.02204E-11  0.00000E+00  0.00000E+00  3.18390E-01
   119  1.22977E-04 -9.99806E-01 -9.99806E-01 -3.09729E-11  0.00000E+00  0.00000E+00  3.18388E-01
   120  1.26029E-04 -9.99820E-01 -9.99820E-01 -3.17428E-11  0.00000E+00  0.00000E+00  3.18385E-01
   121  1.29151E-04 -9.99830E-01 -9.99830E-01 -3.25304E-11  0.00000E+00  0.00000E+00  3.18383E-01
   122  1.32345E-04 -9.99837E-01 -9.99837E-01 -3.33363E-11  0.00000E+00  0.00000E+00  3.18380E-01
   123  1.35613E-04 -9.99842E-01 -9.99842E-01 -3.41608E-11  0.00000E+00  0.00000E+00  3.18378E-01
   124  1.38957E-04 -9.99844E-01 -9.99844E-01 -3.50044E-11  0.00000E+00  0.00000E+00  3.18375E-01
   125  1.42378E-04 -9.99845E-01 -9.99845E-01 -3.58676E-11  0.00000E+00  0.00000E+00  3.18373E-01
   126  1.45879E-04 -9.99845E-01 -9.99845E-01 -3.67506E-11  0.00000E+00  0.00000E+00  3.18370E-01
   127  1.49460E-04 -9.99844E-01 -9.99844E-01 -3.76541E-11  0.00000E+00  0.00000E+00  3.18368E-01
   128  1.53125E-04 -9.99842E-01 -9.99842E-01 -3.85785E-11  0.00000E+00  0.00000E+00  3.18365E-01
   129  1.56874E-04 -9.99840E-01 -9.99840E-01 -3.95243E-11  0.00000E+00  0.00000E+00  3.18362E-01
   130  1.60710E-04 -9.99837E-01 -9.99837E-01 -4.04920E-11  0.00000E+00  0.00000E+00  3.18359E-01
   131  1.64634E-04 -9.99834E-01 -9.99834E-01 -4.14820E-11  0.00000E+00  0.00000E+00  3.18356E-01
   132  1.68650E-04 -9.99830E-01 -9.99830E-01 -4.24949E-11  0.00000E+00  0.00000E+00  3.18353E-01
   133  1.72759E-04 -9.99826E-01 -9.99826E-01 -4.35313E-11  0.00000E+00  0.00000E+00  3.18350E-01
   134  1.76962E-04 -9.99823E-01 -9.99823E-01 -4.45916E-11  0.00000E+00  0.00000E+00  3.18347E-01
   135  1.81263E-04 -9.99818E-01 -9.99818E-01 -4.56764E-11  0.00000E+00  0.00000E+00  3.18344E-01
   136  1.85663E-04 -9.99814E-01 -9.99814E-01 -4.67864E-11  0.00000E+00  0.00000E+00  3.18341E-01
   137  1.90166E-04 -9.99810E-01 -9.99810E-01 -4.79220E-11  0.00000E+00  0.00000E+00  3.18338E-01
   138  1.94772E-04 -9.99805E-01 -9.99805E-01 -4.90838E-11  0.00000E+00  0.00000E+00  3.18334E-01
   139  1.99485E-04 -9.99800E-01 -9.99800E-01 -5.02725E-11  0.00000E+00  0.00000E+00  3.18331E-01
   140  2.04307E-04 -9.99796E-01 -9.99796E-01 -5.14888E-11  0.00000E+00  0.00000E+00  3.18327E-01
   141  2.09241E-04 -9.99791E-01 -9.99791E-01 -5.27331E-11  0.00000E+00  0.00000E+00  3.18324E-01
   142  2.14289E-04 -9.99786E-01 -9.99786E-01 -5.40062E-11  0.00000E+00  0.00000E+00  3.18320E-01
   143  2.19454E-04 -9.99781E-01 -9.99781E-01 -5.53087E-11  0.00000E+00  0.00000E+00  3.18317E-01
   144  2.24738E-04 -9.99775E-01 -9.99775E-01 -5.66414E-11  0.00000E+00  0.00000E+00  3.18313E-01
   145  2.30145E-04 -9.99770E-01 -9.99770E-01 -5.80049E-11  0.00000E+00  0.00000E+00  3.18309E-01
   146  2.35677E-04 -9.99764E-01 -9.99764E-01 -5.93999E-11  0.00000E+00  0.00000E+00  3.18305E-01
   147  2.41336E-04 -9.99759E-01 -9.99759E-01 -6.08271E-11  0.00000E+00  0.00000E+00  3.18301E-01
   148  2.47127E-04 -9.99753E-01 -9.99753E-01 -6.22874E-11  0.00000E+00  0.00000E+00  3.18297E-01
   149  2.53052E-04 -9.99747E-01 -9.99747E-01 -6.37814E-11  0.00000E+00  0.00000E+00  3.18293E-01
   150  2.59114E-04 -9.99741E-01 -9.99741E-01 -6.53100E-11  0.00000E+00  0.00000E+00  3.18289E-01
   151  2.65316E-04 -9.99735E-01 -9.99735E-01 -6.68739E-11  0.00000E+00  0.00000E+00  3.18284E-01
   152  2.71662E-04 -9.99728E-01 -9.99728E-01 -6.84739E-11  0.00000E+00  0.00000E+00  3.18280E-01
   153  2.78155E-04 -9.99722E-01 -9.99722E-01 -7.01109E-11  0.00000E+00  0.00000E+00  3.18275E-01
   154  2.84798E-04 -9.99715E-01 -9.99715E-01 -7.17858E-11  0.00000E+00  0.00000E+00  3.18271E-01
   155  2.91594E-04 -9.99708E-01 -9.99708E-01 -7.34994E-11  0.00000E+00  0.00000E+00  3.18266E-01
   156  2.98548E-04 -9.99701E-01 -9.99701E-01 -7.52526E-11  0.00000E+00  0.00000E+00  3.18261E-01
   157  3.05663E-04 -9.99694E-01 -9.99694E-01 -7.70463E-11  0.00000E+00  0.00000E+00  3.18256E-01
   158  3.12943E-04 -9.99687E-01 -9.99687E-01 -7.88815E-11  0.00000E+00  0.00000E+00  3.18251E-01
   159  3.20391E-04 -9.99680E-01 -9.99680E-01 -8.07591E-11  0.00000E+00  0.00000E+00  3.18246E-01
   160  3.28011E-04 -9.99672E-01 -9.99672E-01 -8.26801E-11  0.00000E+00  0.00000E+00  3.18241E-01
   161  3.35808E-04 -9.99664E-01 -9.99664E-01 -8.46455E-11  0.00000E+00  0.00000E+00  3.18235E-01
   162  3.43785E-04 -9.99656E-01 -9.99656E-01 -8.66563E-11  0.00000E+00  0.00000E+00  3.18230E-01
   163  3.51947E-04 -9.99648E-01 -9.99648E-01 -8.87136E-11  0.00000E+00  0.00000E+00  3.18224E-01
   164  3.60298E-04 -9.99640E-01 -9.99640E-01 -9.08184E-11  0.00000E+00  0.00000E+00  3.18219E-01
   165  3.68842E-04 -9.99631E-01 -9.99631E-01 -9.29719E-11  0.00000E+00  0.00000E+00  3.18213E-01
   166  3.77584E-04 -9.99622E-01 -9.99622E-01 -9.51751E-11  0.00000E+00  0.00000E+00  3.18207E-01
   167  3.86528E-04 -9.99613E-01 -9.99613E-01 -9.74292E-11  0.00000E+00  0.00000E+00  3.18201E-01
   168  3.95679E-04 -9.99604E-01 -9.99604E-01 -9.97355E-11  0.00000E+00  0.00000E+00  3.18195E-01
   169  4.05042E-04 -9.99595E-01 -9.99595E-01 -1.02095E-10  0.00000E+00  0.00000E+00  3.18188E-01
   170  4.14622E-04 -9.99585E-01 -9.99585E-01 -1.04509E-10  0.00000E+00  0.00000E+00  3.18182E-01
   171  4.24423E-04 -9.99576E-01 -9.99576E-01 -1.06979E-10  0.00000E+00  0.00000E+00  3.18175E-01
   172  4.34452E-04 -9.99566E-01 -9.99566E-01 -1.09506E-10  0.00000E+00  0.00000E+00  3.18168E-01
   173  4.44712E-04 -9.99555E-01 -9.99555E-01 -1.12091E-10  0.00000E+00  0.00000E+00  3.18161E-01
   174  4.55210E-04 -9.99545E-01 -9.99545E-01 -1.14736E-10  0.00000E+00  0.00000E+00  3.18154E-01
   175  4.65950E-04 -9.99534E-01 -9.99534E-01 -1.17442E-10  0.00000E+00  0.00000E+00  3.18147E-01
   176  4.76940E-04 -9.99523E-01 -9.99523E-01 -1.20210E-10  0.00000E+00  0.00000E+00  3.18140E-01
   177  4.88183E-04 -9.99512E-01 -9.99512E-01 -1.23043E-10  0.00000E+00  0.00000E+00  3.18132E-01
   178  4.99687E-04 -9.99500E-01 -9.99500E-01 -1.25941E-10  0.00000E+00  0.00000E+00  3.18124E-01
   179  5.11457E-04 -9.99489E-01 -9.99489E-01 -1.28906E-10  0.00000E+00  0.00000E+00  3.18117E-01
   180  5.23500E-04 -9.99476E-01 -9.99476E-01 -1.31939E-10  0.00000E+00  0.00000E+00  3.18109E-01
   181  5.35821E-04 -9.99464E-01 -9.99464E-01 -1.35042E-10  0.00000E+00  0.00000E+00  3.18100E-01
   182  5.48427E-04 -9.99452E-01 -9.99452E-01 -1.38217E-10  0.00000E+00  0.00000E+00  3.18092E-01
   183  5.61325E-04 -9.99439E-01 -9.99439E-01 -1.41466E-10  0.00000E+00  0.00000E+00  3.18083E-01
   184  5.74522E-04 -9.99425E-01 -9.99425E-01 -1.44789E-10  0.00000E+00  0.00000E+00  3.18075E-01
   185  5.88024E-04 -9.99412E-01 -9.99412E-01 -1.48189E-10  0.00000E+00  0.00000E+00  3.18066E-01
   186  6.01839E-04 -9.99398E-01 -9.99398E-01 -1.51667E-10  0.00000E+00  0.00000E+00  3.18056E-01
   187  6.15973E-04 -9.99384E-01 -9.99384E-01 -1.55226E-10  0.00000E+00  0.00000E+00  3.18047E-01
   188  6.30434E-04 -9.99370E-01 -9.99370E-01 -1.58867E-10  0.00000E+00  0.00000E+00  3.18037E-01
   189  6.45230E-04 -9.99355E-01 -9.99355E-01 -1.62592E-10  0.00000E+00  0.00000E+00  3.18028E-01
   190  6.60369E-04 -9.99340E-01 -9.99340E-01 -1.66403E-10  0.00000E+00  0.00000E+00  3.18018E-01
   191  6.75858E-04 -9.99324E-01 -9.99324E-01 -1.70302E-10  0.00000E+00  0.00000E+00  3.18007E-01
   192  6.91705E-04 -9.99308E-01 -9.99308E-01 -1.74291E-10  0.00000E+00  0.00000E+00  3.17997E-01
   193  7.07919E-04 -9.99292E-01 -9.99292E-01 -1.78372E-10  0.00000E+00  0.00000E+00  3.17986E-01
   194  7.24508E-04 -9.99275E-01 -9.99275E-01 -1.82547E-10  0.00000E+00  0.00000E+00  3.17975E-01
   195  7.41482E-04 -9.99258E-01 -9.99258E-01 -1.86819E-10  0.00000E+00  0.00000E+00  3.17964E-01
   196  7.58848E-04 -9.99241E-01 -9.99241E-01 -1.91189E-10  0.00000E+00  0.00000E+00  3.17953E-01
   197  7.76616E-04 -9.99223E-01 -9.99223E-01 -1.95660E-10  0.00000E+00  0.00000E+00  3.17941E-01
   198  7.94795E-04 -9.99205E-01 -9.99205E-01 -2.00234E-10  0.00000E+00  0.00000E+00  3.17929E-01
   199  8.13395E-04 -9.99187E-01 -9.99187E-01 -2.04913E-10  0.00000E+00  0.00000E+00  3.17917E-01
   200  8.32425E-04 -9.99168E-01 -9.99168E-01 -2.09701E-10  0.00000E+00  0.00000E+00  3.17904E-01
